{"Light":{"Led410Enable":true;"Led470Enable":true;"Led560Enable":false;"Led410Value":50.0;"Led470Value":50.0;"Led560Value":100.0};"Excitation":{"mode":1;"discontinuous":false;"interval_time":1;"continuous_time":1};"Channels":[{"Name":"CH1";"ChanelColor":"#00000000";"Roi1":"337.456338028169;222.898591549295;102.304225352113;102.304225352113";"Roi2":"319;227;102.304225352113;102.304225352113"}];"AllMarking":[{"id":0;"type":1;"opened":true;"name":"STIM";"Levels":0;"color":"#FFFF0000";"key":0;"threshold":0.0;"ID":"0";"all":true;"channels":["AllChannel";"CH1"];"enable":true};{"id":0;"type":2;"opened":true;"name":"Input1";"Levels":0;"color":"#FFFF0000";"key":0;"threshold":0.0;"ID":"0";"all":true;"channels":["AllChannel";"CH1"];"enable":true};{"id":0;"type":2;"opened":true;"name":"Input2";"Levels":0;"color":"#FF604A7B";"key":0;"threshold":0.0;"ID":"0";"all":true;"channels":["AllChannel";"CH1"];"enable":true};{"id":0;"type":2;"opened":true;"name":"Input3";"Levels":0;"color":"#FF92D050";"key":0;"threshold":0.0;"ID":"0";"all":true;"channels":["AllChannel";"CH1"];"enable":true};{"id":0;"type":2;"opened":true;"name":"Input4";"Levels":0;"color":"#FF0099FF";"key":0;"threshold":0.0;"ID":"0";"all":true;"channels":["AllChannel";"CH1"];"enable":true}];"Fps":30.0}
TimeStamp,Events,CH1-410,CH1-470,
0.000,,274.693,199.122,
66.664,,274.747,199.013,
133.332,,274.866,198.938,
199.995,,274.500,198.744,
266.664,,274.868,198.546,
333.328,,274.479,198.592,
399.998,,274.504,198.464,
466.664,,274.457,198.491,
533.329,,274.562,198.423,
600.000,,274.475,198.394,
666.662,,274.298,198.194,
733.333,,274.407,198.116,
799.997,,274.193,198.014,
866.666,,274.413,197.961,
933.330,,274.387,197.973,
999.999,,274.222,197.895,
1066.666,,274.283,197.890,
1133.332,,274.147,197.819,
1199.998,,274.212,197.715,
1266.662,,273.885,197.741,
1333.331,,273.956,197.623,
1399.998,,273.872,197.515,
1466.660,,273.967,197.550,
1533.334,,273.980,197.503,
1599.994,,273.974,197.489,
1666.665,,273.889,197.470,
1733.333,,273.769,197.239,
1799.994,,273.817,197.283,
1866.665,,273.823,197.493,
1933.331,,273.696,197.291,
1999.996,,273.611,197.262,
2066.662,,273.763,197.218,
2133.328,,273.620,197.195,
2199.997,,273.811,197.335,
2266.661,,273.659,197.122,
2333.333,,273.776,197.189,
2399.998,,273.448,197.149,
2466.665,,273.464,197.063,
2533.328,,273.552,197.132,
2599.994,,273.509,197.018,
2666.666,,273.612,197.014,
2733.327,,273.531,196.913,
2799.998,,273.541,196.937,
2866.661,,273.420,196.863,
2933.332,,273.079,196.926,
2999.998,,273.308,196.964,
3066.663,,273.371,196.840,
3133.330,,273.274,196.889,
3199.999,,273.287,196.803,
3266.663,,273.221,196.856,
3333.333,,273.261,196.806,
3399.996,,273.302,196.729,
3466.662,,273.657,196.697,
3533.332,,273.070,196.827,
3600.000,,273.416,196.777,
3666.666,,272.960,196.652,
3733.334,,273.267,196.712,
3799.994,,273.105,196.618,
3866.661,,273.428,196.693,
3933.327,,273.295,196.707,
3999.996,,272.941,196.523,
4066.661,,273.263,196.612,
4133.330,,272.464,196.504,
4199.994,,273.439,196.520,
4266.665,,273.112,196.502,
4333.330,,273.309,196.529,
4399.995,,272.914,196.376,
4466.664,,273.059,196.410,
4533.332,,272.865,196.486,
4600.000,,272.805,196.281,
4666.664,,273.084,196.516,
4733.333,,272.964,196.467,
4799.999,,272.948,196.396,
4866.666,,272.977,196.374,
4933.327,,273.033,196.364,
5000.000,,272.974,196.376,
5066.667,,273.075,196.373,
5133.331,,272.901,196.277,
5199.995,,272.970,196.331,
5266.667,,272.778,196.416,
5333.331,,272.719,196.348,
5399.996,,272.670,196.346,
5466.664,,272.885,196.181,
5533.332,,272.900,196.358,
5599.997,,272.885,196.189,
5666.665,,272.808,196.167,
5733.328,,272.771,196.208,
5800.000,,272.950,196.036,
5866.664,,272.890,196.320,
5933.332,,272.894,196.185,
5999.997,,272.826,196.205,
6066.664,,272.811,196.092,
6133.331,,272.765,196.083,
6199.999,,272.792,196.152,
6266.662,,272.693,196.124,
6333.334,,272.662,196.061,
6399.999,,272.649,196.166,
6466.660,,272.759,196.088,
6533.329,,272.631,196.073,
6600.001,,272.739,196.092,
6666.662,,272.752,196.026,
6733.334,,272.793,196.075,
6799.997,,272.693,196.177,
6866.662,,272.570,196.125,
6933.333,,272.596,196.062,
6999.997,,272.676,196.071,
7066.661,,272.682,195.999,
7133.333,,272.783,196.054,
7199.999,,272.690,196.097,
7266.661,,272.645,196.124,
7333.329,,272.652,196.059,
7400.001,,272.603,196.185,
7466.667,,272.769,196.064,
7533.329,,272.706,196.150,
7599.998,,272.649,196.091,
7666.667,,272.698,196.058,
7733.330,,272.558,196.088,
7799.994,,272.504,196.029,
7866.663,,272.565,195.984,
7933.333,,272.777,195.988,
8000.000,,272.599,196.000,
8066.663,,272.602,196.104,
8133.330,,272.451,195.864,
8199.997,,272.578,195.913,
8266.662,,272.488,195.963,
8333.331,,272.548,195.948,
8399.998,,272.550,195.932,
8466.663,,272.546,196.046,
8533.330,,272.423,195.894,
8599.998,,272.419,195.985,
8666.661,,272.435,195.855,
8733.330,,272.560,195.995,
8799.994,,272.648,195.927,
8866.661,,272.443,195.837,
