{"Light":{"Led410Enable":true;"Led470Enable":true;"Led560Enable":false;"Led410Value":50.0;"Led470Value":50.0;"Led560Value":100.0};"Excitation":{"mode":1;"discontinuous":false;"interval_time":1;"continuous_time":1};"Channels":[{"Name":"CH1";"ChanelColor":"#00000000";"Roi1":"342.070422535211;258.785915492957;96.1521126760566;96.1521126760566";"Roi2":"319;227;96.1521126760566;96.1521126760566"}];"AllMarking":[{"id":0;"type":1;"opened":true;"name":"STIM";"Levels":0;"color":"#FFFF0000";"key":0;"threshold":0.0;"ID":"0";"all":true;"channels":["AllChannel";"CH1"];"enable":true};{"id":0;"type":2;"opened":true;"name":"Input1";"Levels":0;"color":"#FFFF0000";"key":0;"threshold":0.0;"ID":"0";"all":true;"channels":["AllChannel";"CH1"];"enable":true};{"id":0;"type":2;"opened":true;"name":"Input2";"Levels":0;"color":"#FF604A7B";"key":0;"threshold":0.0;"ID":"0";"all":true;"channels":["AllChannel";"CH1"];"enable":true};{"id":0;"type":2;"opened":true;"name":"Input3";"Levels":0;"color":"#FF92D050";"key":0;"threshold":0.0;"ID":"0";"all":true;"channels":["AllChannel";"CH1"];"enable":true};{"id":0;"type":2;"opened":true;"name":"Input4";"Levels":0;"color":"#FF0099FF";"key":0;"threshold":0.0;"ID":"0";"all":true;"channels":["AllChannel";"CH1"];"enable":true}];"Fps":30.0}
TimeStamp,Events,CH1-410,CH1-470,
0.000,,429.317,479.814,
66.669,,429.331,479.514,
133.335,,429.293,479.202,
199.996,,428.965,479.115,
266.663,,428.775,478.882,
333.330,,428.635,478.879,
400.000,,428.411,478.411,
466.663,,428.616,478.425,
533.329,,428.450,478.257,
600.002,,428.425,478.436,
666.667,,428.397,478.252,
733.335,,428.273,478.042,
800.002,,428.175,477.823,
866.664,,428.077,478.007,
933.329,,427.992,477.637,
999.996,,427.993,477.595,
1066.664,,427.796,477.431,
1133.331,,427.657,477.461,
1200.002,,427.434,477.165,
1266.668,,427.463,477.252,
1333.329,,427.295,477.062,
1400.000,,427.329,477.175,
1466.668,,427.179,477.208,
1533.332,,427.236,476.997,
1600.003,,427.151,476.684,
1666.668,,427.063,476.869,
1733.330,,427.189,476.619,
1800.002,,427.054,476.812,
1866.665,,426.942,476.473,
1933.333,,426.794,476.548,
1999.998,,426.806,476.587,
2066.666,,426.812,476.383,
2133.333,,426.647,476.106,
2200.002,,426.667,476.156,
2266.666,,426.729,476.067,
2333.334,,426.440,476.122,
2399.998,,426.420,475.916,
2466.669,,426.504,476.004,
2533.331,,426.323,476.034,
2600.001,,426.404,475.962,
2666.668,,426.255,475.737,
2733.329,,426.130,475.856,
2799.997,,426.233,475.718,
2866.664,,426.045,475.703,
2933.332,,426.053,475.734,
3000.002,,426.054,475.613,
3066.666,,426.067,475.638,
3133.335,,425.917,475.608,
3199.999,,426.023,475.431,
3266.668,,425.780,475.366,
3333.332,,425.676,475.221,
3399.996,,425.765,475.504,
3466.667,,425.681,475.213,
3533.329,,425.373,475.208,
3600.001,,425.414,474.965,
3666.665,,425.421,474.916,
3733.334,,425.489,475.010,
3800.000,,425.427,475.071,
3866.669,,425.337,474.981,
3933.331,,425.284,474.821,
4000.000,,425.171,474.965,
4066.664,,425.166,474.768,
4133.330,,424.993,474.708,
4200.002,,424.930,474.659,
4266.667,,424.916,474.545,
4333.334,,425.064,474.667,
4399.999,,424.788,474.662,
4466.668,,424.752,474.584,
4533.334,,424.753,474.538,
4599.998,,424.964,474.338,
4666.667,,424.737,474.300,
4733.330,,424.604,474.333,
4799.996,,424.447,474.527,
4866.666,,424.583,474.147,
4933.336,,424.528,474.340,
5000.001,,424.526,474.204,
5066.668,,424.444,474.208,
5133.333,,424.548,474.063,
5199.999,,424.378,474.079,
5266.665,,424.344,473.953,
5333.333,,424.176,474.085,
5400.001,,424.250,473.996,
5466.663,,424.177,473.704,
5533.336,,424.160,473.742,
5599.998,,424.274,473.790,
5666.665,,423.986,473.686,
5733.335,,423.900,473.617,
5800.002,,423.991,473.669,
5866.666,,423.979,473.758,
5933.330,,423.819,473.570,
6000.002,,424.048,473.753,
6066.664,,423.738,473.415,
6133.335,,424.004,473.490,
6200.003,,423.795,473.540,
6266.667,,423.642,473.303,
6333.332,,423.668,473.103,
6399.996,,423.635,473.206,
6466.664,,423.686,473.442,
6533.332,,423.530,473.280,
6600.002,,423.523,473.351,
6666.667,,423.417,473.253,
6733.330,,423.605,473.047,
6799.996,,423.156,473.062,
6866.664,,423.475,473.188,
6933.330,,423.266,472.994,
6999.997,,423.600,473.125,
7066.665,,423.043,472.945,
7133.333,,423.231,473.059,
7199.998,,423.195,472.932,
7266.667,,423.253,472.914,
7333.334,,423.071,473.018,
7400.000,,423.166,472.822,
7466.668,,423.110,472.829,
7533.331,,422.819,472.850,
7599.997,,423.072,472.830,
7666.663,,423.005,472.752,
7733.336,,422.796,472.494,
7799.997,,422.612,472.477,
7866.668,,422.735,472.625,
7933.334,,422.712,472.542,
7999.998,,422.685,472.616,
8066.666,,422.590,472.434,
8133.331,,422.554,472.614,
8200.002,,422.767,472.453,
8266.665,,422.707,472.490,
8333.333,,422.446,472.524,
8399.996,,422.562,472.197,
8466.666,,422.535,472.379,
8533.335,,422.313,472.460,
8599.997,,422.367,472.404,
8666.666,,422.368,472.200,
8733.332,,422.130,472.275,
8799.997,,422.314,471.932,
8866.666,,422.357,472.160,
8933.332,,422.314,472.207,
8999.998,,422.300,471.892,
9066.666,,422.230,471.967,
9133.334,,421.968,472.086,
9199.999,,422.111,471.852,
9266.667,,422.048,471.993,
9333.335,,422.003,472.267,
9399.998,,422.126,472.117,
9466.664,,422.031,471.999,
9533.335,,421.859,471.968,
9599.999,,421.941,471.871,
9666.664,,421.755,471.651,
9733.330,,421.797,471.763,
9799.996,,421.698,471.732,
9866.666,,421.641,471.529,
9933.333,,421.531,471.859,
10000.000,,421.421,471.711,
10066.669,,421.675,471.650,
10133.329,,421.371,471.351,
10199.996,,421.498,471.413,
10266.666,,421.613,471.599,
10333.331,,421.488,471.404,
10400.001,,421.406,471.417,
10466.667,,421.509,471.436,
10533.331,,421.376,471.490,
10599.999,,421.372,471.373,
10666.665,,421.331,471.347,
10733.330,,421.264,471.208,
10800.001,,421.136,471.203,
10866.663,,421.100,471.180,
10933.335,,421.061,471.306,
10999.998,,421.159,471.212,
11066.668,,421.113,470.768,
11133.333,,421.172,471.370,
11199.998,,420.897,471.314,
11266.667,,421.142,471.095,
11333.331,,421.011,471.054,
11399.996,,421.172,471.149,
11466.663,,421.023,470.895,
11533.334,,420.947,471.033,
11599.996,,420.786,471.198,
11666.667,,421.018,471.079,
11733.334,,420.681,470.724,
11800.001,,420.788,470.838,
11866.668,,420.626,470.725,
11933.330,,420.587,470.911,
11999.996,,420.798,470.805,
12066.662,,420.604,470.749,
12133.331,,420.483,470.781,
12200.000,,420.632,470.855,
12266.667,,420.386,470.651,
12333.333,,420.560,470.709,
12399.996,,420.673,470.545,
12466.668,,420.363,470.563,
12533.335,,420.456,470.658,
12600.001,,420.504,470.653,
12666.667,,420.293,470.314,
12733.335,,420.216,470.453,
12800.001,,420.340,470.482,
12866.669,,420.352,470.446,
12933.334,,420.314,470.475,
12999.999,,420.245,470.334,
13066.664,,420.392,470.342,
13133.333,,419.887,470.462,
13200.002,,420.113,470.188,
13266.663,,419.902,470.350,
13333.329,,419.803,470.174,
13399.999,,419.841,470.469,
13466.668,,420.007,470.283,
13533.335,,419.991,470.338,
13600.001,,419.984,470.059,
13666.668,,419.852,469.946,
13733.331,,419.917,470.317,
13799.999,,419.891,470.232,
13866.665,,419.868,470.151,
13933.332,,419.810,469.911,
13999.997,,419.772,469.898,
14066.667,,419.731,469.995,
14133.334,,419.833,469.973,
14199.999,,419.754,470.037,
14266.669,,419.575,469.961,
14333.335,,419.846,469.775,
14400.000,,419.510,469.872,
14466.663,,419.661,469.983,
14533.331,,419.501,469.924,
14600.000,,419.518,469.894,
14666.665,,419.254,469.813,
14733.330,,419.501,469.590,
14800.002,,419.436,469.734,
14866.667,,419.411,469.651,
14933.332,,419.455,469.667,
15000.001,,419.325,469.611,
15066.666,,419.459,469.409,
15133.331,,419.211,469.600,
15199.999,,419.093,469.743,
15266.663,,419.292,469.501,
15333.333,,419.053,469.631,
15399.998,,419.208,469.230,
15466.667,,419.237,469.360,
15533.335,,419.150,469.348,
15599.999,,419.201,469.504,
15666.664,,419.187,469.454,
15733.330,,419.005,469.258,
15799.998,,419.260,469.397,
15866.668,,419.015,469.206,
15933.330,,419.029,469.272,
15999.982,,418.989,469.289,
16066.631,,419.112,469.494,
16133.278,,418.705,469.297,
16199.933,,419.032,469.257,
16266.582,,418.880,469.168,
16333.227,,418.837,469.204,
16399.875,,418.786,469.241,
16466.525,,418.725,469.144,
16533.177,,418.713,469.097,
16599.823,,418.719,469.162,
16666.472,,418.802,469.121,
16733.120,,418.831,469.076,
16799.765,,418.486,468.969,
16866.413,,418.349,469.065,
16933.064,,418.553,468.889,
16999.708,,418.512,469.148,
17066.355,,418.555,468.889,
17133.003,,418.491,468.734,
17199.653,,418.430,468.764,
17266.298,,418.631,468.841,
17332.943,,418.539,468.847,
17399.593,,418.382,469.009,
17466.236,,418.441,468.888,
17532.885,,418.535,468.746,
17599.531,,418.423,468.809,
17666.178,,418.298,468.694,
17732.819,,418.413,468.783,
17799.466,,418.289,468.828,
17866.114,,418.406,468.808,
17932.762,,418.222,468.781,
17999.403,,418.270,468.881,
18066.048,,418.434,468.750,
18132.699,,418.206,468.794,
18199.341,,418.089,468.624,
18265.983,,417.985,468.637,
18332.627,,417.992,468.671,
18399.273,,417.988,468.681,
18465.920,,418.125,468.421,
18532.564,,418.151,468.444,
18599.203,,418.013,468.539,
18665.852,,417.994,468.525,
18732.491,,417.812,468.411,
18799.139,,417.958,468.434,
18865.779,,417.963,468.558,
18932.428,,417.916,468.298,
18999.069,,417.817,468.565,
19065.712,,417.999,468.333,
19132.351,,417.768,468.105,
19198.997,,417.812,468.341,
19265.642,,417.668,468.331,
19332.284,,417.657,468.280,
19398.922,,417.624,468.461,
19465.567,,417.713,468.130,
19532.211,,417.523,468.085,
19598.847,,417.548,468.228,
19665.496,,417.516,468.321,
19732.134,,417.689,468.254,
19798.775,,417.418,468.212,
19865.417,,417.387,467.959,
19932.057,,417.586,468.195,
19998.696,,417.476,468.208,
20065.338,,417.785,468.141,
20131.985,,417.446,468.136,
20198.621,,417.362,467.999,
20265.266,,417.446,468.042,
20331.900,,417.262,467.683,
20398.542,,417.383,467.706,
20465.181,,417.389,467.771,
20531.823,,417.310,467.789,
20598.461,,417.233,467.855,
20665.103,,417.352,467.869,
20731.739,,417.127,467.921,
20798.385,,417.064,467.681,
20865.023,,417.070,467.845,
20931.662,,417.241,467.651,
20998.296,,417.244,468.004,
21064.940,,417.308,467.836,
21131.579,,417.068,467.658,
21198.215,Input1*2*0,417.096,467.867,
21264.852,Input1*2*1,417.259,467.739,
21331.490,,417.080,467.685,
21398.129,,416.946,467.511,
21464.768,,417.014,467.556,
21531.404,,417.070,467.478,
21598.044,,416.756,467.413,
21664.681,,416.978,467.385,
21731.318,,416.896,467.492,
21797.957,,416.740,467.555,
21864.595,,416.877,467.488,
21931.227,,416.800,467.620,
21997.865,,416.862,467.475,
22064.506,,416.676,467.333,
22131.142,,416.952,467.433,
22197.777,,416.819,467.133,
22264.414,,416.687,467.369,
22331.049,,416.614,467.503,
22397.684,,416.571,467.350,
22464.320,,416.505,467.176,
22530.953,,416.554,467.286,
22597.591,,416.680,467.333,
22664.231,,416.622,467.152,
22730.860,,416.419,467.446,
22797.498,,416.599,467.370,
22864.132,,416.663,467.149,
22930.770,,416.441,467.141,
22997.401,,416.489,467.097,
23064.034,,416.390,466.925,
23130.674,,416.268,466.774,
23197.307,,416.309,467.143,
23263.938,,416.551,467.121,
23330.574,,416.502,467.031,
23397.208,,416.469,466.884,
23463.844,,416.485,466.908,
23530.476,,416.213,466.792,
23597.105,,416.176,466.948,
23663.743,,416.230,466.905,
23730.374,,416.179,466.855,
23797.005,,416.186,466.804,
23863.643,,416.266,466.945,
23930.274,,415.944,466.805,
23996.928,,416.096,466.987,
24063.587,,416.052,466.801,
24130.242,,416.019,466.585,
24196.905,,415.977,466.836,
24263.558,,415.768,466.734,
24330.213,,415.886,466.792,
24396.875,,415.967,466.705,
24463.527,,415.818,466.632,
24530.186,,416.128,466.490,
24596.845,,415.850,466.719,
24663.505,,415.835,466.543,
24730.159,,415.852,466.719,
24796.815,,415.879,466.581,
24863.472,,416.020,466.332,
24930.128,,415.951,466.563,
24996.784,,415.720,466.421,
25063.442,,415.561,466.561,
25130.103,,415.775,466.392,
25196.756,,415.685,466.460,
25263.417,,415.615,466.353,
25330.076,,415.579,466.602,
25396.734,,415.747,466.446,
25463.388,,415.648,466.325,
25530.034,,415.703,466.350,
25596.701,,415.720,466.279,
25663.359,,415.571,466.325,
25730.017,,415.547,466.323,
25796.674,,415.498,466.227,
25863.333,,415.305,466.174,
25929.985,,415.661,466.143,
25996.646,,415.273,466.282,
26063.303,,415.363,466.183,
26129.958,,415.234,466.262,
26196.613,,415.410,466.208,
26263.268,,415.401,466.103,
26329.930,,415.269,466.200,
26396.582,,415.332,466.200,
26463.243,,415.407,466.196,
26529.900,,415.097,466.119,
26596.555,,415.248,466.100,
26663.213,,415.274,466.177,
26729.873,,415.327,465.926,
26796.526,,415.270,465.979,
26863.182,,415.224,465.868,
26929.841,,415.127,465.964,
26996.501,,415.058,465.982,
27063.154,,415.003,465.984,
27129.811,,415.122,465.936,
27196.469,,415.065,465.874,
27263.128,,415.072,465.972,
27329.784,,414.948,465.734,
27396.437,,414.988,465.835,
27463.095,,415.107,465.843,
27529.752,,414.840,465.949,
27596.413,,415.194,465.820,
27663.067,,414.754,465.572,
27729.721,,414.787,465.745,
27796.383,,414.879,465.884,
27863.041,,414.584,465.734,
27929.692,,414.916,465.681,
27996.352,,414.723,465.663,
28063.011,,414.862,465.895,
28129.669,,414.683,465.774,
28196.323,,414.622,465.459,
28262.979,,414.595,465.650,
28329.634,,414.765,465.580,
28396.290,,414.638,465.591,
28462.948,,414.446,465.495,
28529.609,,414.666,465.540,
28596.264,,414.561,465.344,
28662.921,,414.659,465.555,
28729.577,,414.568,465.644,
28796.232,,414.473,465.365,
28862.891,,414.513,465.520,
28929.548,,414.525,465.346,
28996.205,,414.432,465.449,
29062.858,,414.491,465.406,
29129.516,,414.376,465.530,
29196.174,,414.479,465.168,
29262.832,,414.394,465.456,
29329.488,,414.307,465.374,
29396.146,,414.435,465.316,
29462.804,,414.303,465.420,
29529.462,,414.331,465.154,
29596.111,,414.362,465.288,
29662.772,,414.336,465.192,
29729.428,,414.377,465.231,
29796.084,,414.280,465.314,
29862.741,,414.464,465.134,
29929.395,,414.287,465.224,
29996.055,,414.437,465.167,
30062.712,,414.055,464.892,
30129.370,,414.269,465.096,
30196.028,,414.170,465.146,
30262.685,,414.102,465.120,
30329.336,,414.107,464.904,
30395.992,,414.108,464.953,
30462.649,,413.810,464.925,
30529.308,Input1*2*0,413.988,465.151,
30595.966,,413.928,465.008,
30662.619,,414.015,465.102,
30729.279,,413.969,464.929,
30795.933,,414.001,464.716,
30862.588,,413.868,464.806,
30929.246,,413.909,464.924,
30995.904,Input1*2*1,414.016,465.014,
31062.559,,413.861,464.802,
31129.217,,413.853,464.896,
31195.876,,413.758,464.969,
31262.534,,413.828,464.791,
31329.189,,413.800,464.665,
31395.847,,413.715,464.833,
31462.503,,413.596,464.883,
31529.156,,413.439,464.814,
31595.817,,413.897,464.688,
31662.470,,413.548,464.638,
31729.127,,413.758,464.680,
31795.782,,413.611,464.577,
31862.439,,413.405,464.808,
31929.095,,413.475,464.458,
31995.757,,413.506,464.517,
32062.416,,413.622,464.517,
32129.073,,413.500,464.596,
32195.733,,413.386,464.573,
32262.391,,413.450,464.543,
32329.046,,413.591,464.352,
32395.707,,413.300,464.359,
32462.364,,413.234,464.491,
32529.023,,413.255,464.282,
32595.681,,413.303,464.344,
32662.338,,413.384,464.401,
32728.995,,413.282,464.524,
32795.652,,413.364,464.376,
32862.313,,413.307,464.213,
32928.970,,413.361,464.307,
32995.631,,413.253,464.048,
33062.288,,413.328,464.395,
33128.948,,413.219,464.280,
33195.606,,413.280,464.110,
33262.264,,413.084,464.156,
33328.921,,413.102,464.220,
33395.577,,413.002,464.037,
33462.234,,412.991,464.225,
33528.893,,413.085,463.929,
33595.552,,412.891,463.872,
33662.211,,412.912,463.767,
33728.872,,413.166,463.974,
33795.531,,412.931,464.066,
33862.188,,412.853,463.831,
33928.847,,412.820,463.932,
33995.503,,412.881,463.821,
34062.159,,412.853,463.933,
34128.820,,412.860,464.092,
34195.477,,412.601,463.857,
34262.138,,412.822,463.990,
34328.795,,412.734,464.059,
34395.454,,412.760,463.643,
34462.111,,412.700,463.526,
34528.766,,412.616,463.907,
34595.427,,412.637,463.924,
34662.086,,412.551,463.828,
34728.744,,412.572,463.492,
34795.399,,412.821,463.655,
34862.063,,412.718,463.606,
34928.718,,412.520,463.792,
34995.380,,412.514,463.562,
35062.039,,412.416,463.909,
35128.693,,412.418,463.687,
35195.349,,412.488,463.507,
35262.009,,412.394,463.541,
35328.669,,412.604,463.578,
35395.329,,412.383,463.458,
35461.982,,412.424,463.500,
35528.644,,412.392,463.465,
35595.299,,412.224,463.755,
35661.961,,412.189,463.475,
35728.620,,412.370,463.558,
35795.280,,412.094,463.419,
35861.933,,412.371,463.418,
35928.596,,412.407,463.429,
35995.252,,412.355,463.417,
36061.912,,412.253,463.300,
