{"Light":{"Led410Enable":true;"Led470Enable":true;"Led560Enable":false;"Led410Value":50.0;"Led470Value":50.0;"Led560Value":100.0};"Excitation":{"mode":1;"discontinuous":false;"interval_time":1;"continuous_time":1};"Channels":[{"Name":"CH1";"ChanelColor":"#00000000";"Roi1":"342.070422535211;258.785915492957;96.1521126760566;96.1521126760566";"Roi2":"319;227;96.1521126760566;96.1521126760566"}];"AllMarking":[{"id":0;"type":1;"opened":true;"name":"STIM";"Levels":0;"color":"#FFFF0000";"key":0;"threshold":0.0;"ID":"0";"all":true;"channels":["AllChannel";"CH1"];"enable":true};{"id":0;"type":2;"opened":true;"name":"Input1";"Levels":0;"color":"#FFFF0000";"key":0;"threshold":0.0;"ID":"0";"all":true;"channels":["AllChannel";"CH1"];"enable":true};{"id":0;"type":2;"opened":true;"name":"Input2";"Levels":0;"color":"#FF604A7B";"key":0;"threshold":0.0;"ID":"0";"all":true;"channels":["AllChannel";"CH1"];"enable":true};{"id":0;"type":2;"opened":true;"name":"Input3";"Levels":0;"color":"#FF92D050";"key":0;"threshold":0.0;"ID":"0";"all":true;"channels":["AllChannel";"CH1"];"enable":true};{"id":0;"type":2;"opened":true;"name":"Input4";"Levels":0;"color":"#FF0099FF";"key":0;"threshold":0.0;"ID":"0";"all":true;"channels":["AllChannel";"CH1"];"enable":true}];"Fps":30.0}
TimeStamp,Events,CH1-410,CH1-470,Unnamed: 4,ToneStart,PelletGrab
0.0,,429.317,479.814,,0,0
66.669,,429.331,479.514,,0,0
133.335,,429.293,479.202,,0,0
199.996,,428.965,479.115,,0,0
266.663,,428.775,478.882,,0,0
333.33,,428.635,478.879,,0,0
400.0,,428.411,478.411,,0,0
466.663,,428.616,478.425,,0,0
533.329,,428.45,478.257,,0,0
600.002,,428.425,478.436,,0,0
666.667,,428.397,478.252,,0,0
733.335,,428.273,478.042,,0,0
800.002,,428.175,477.823,,0,0
866.664,,428.077,478.007,,0,0
933.329,,427.992,477.637,,0,0
999.996,,427.993,477.595,,0,0
1066.664,,427.796,477.431,,0,0
1133.331,,427.657,477.461,,0,0
1200.002,,427.434,477.165,,0,0
1266.668,,427.463,477.252,,0,0
1333.329,,427.295,477.062,,0,0
1400.0,,427.329,477.175,,0,0
1466.668,,427.179,477.208,,0,0
1533.332,,427.236,476.997,,0,0
1600.003,,427.151,476.684,,0,0
1666.668,,427.063,476.869,,0,0
1733.33,,427.189,476.619,,0,0
1800.002,,427.054,476.812,,0,0
1866.665,,426.942,476.473,,0,0
1933.333,,426.794,476.548,,0,0
1999.998,,426.806,476.587,,0,0
2066.666,,426.812,476.383,,0,0
2133.333,,426.647,476.106,,0,0
2200.002,,426.667,476.156,,0,0
2266.666,,426.729,476.067,,0,0
2333.334,,426.44,476.122,,0,0
2399.998,,426.42,475.916,,0,0
2466.669,,426.504,476.004,,0,0
2533.331,,426.323,476.034,,0,0
2600.001,,426.404,475.962,,0,0
2666.668,,426.255,475.737,,0,0
2733.329,,426.13,475.856,,0,0
2799.997,,426.233,475.718,,0,0
2866.664,,426.045,475.703,,0,0
2933.332,,426.053,475.734,,0,0
3000.002,,426.054,475.613,,0,0
3066.666,,426.067,475.638,,0,0
3133.335,,425.917,475.608,,0,0
3199.999,,426.023,475.431,,0,0
3266.668,,425.78,475.366,,0,0
3333.332,,425.676,475.221,,0,0
3399.996,,425.765,475.504,,0,0
3466.667,,425.681,475.213,,0,0
3533.329,,425.373,475.208,,0,0
3600.001,,425.414,474.965,,0,0
3666.665,,425.421,474.916,,0,0
3733.334,,425.489,475.01,,0,0
3800.0,,425.427,475.071,,0,0
3866.669,,425.337,474.981,,0,0
3933.331,,425.284,474.821,,0,0
4000.0,,425.171,474.965,,0,0
4066.664,,425.166,474.768,,0,0
4133.33,,424.993,474.708,,0,0
4200.002,,424.93,474.659,,0,0
4266.667,,424.916,474.545,,0,0
4333.334,,425.064,474.667,,0,0
4399.999,,424.788,474.662,,0,0
4466.668,,424.752,474.584,,0,0
4533.334,,424.753,474.538,,0,0
4599.998,,424.964,474.338,,0,0
4666.667,,424.737,474.3,,0,0
4733.33,,424.604,474.333,,0,0
4799.996,,424.447,474.527,,0,0
4866.666,,424.583,474.147,,0,0
4933.336,,424.528,474.34,,0,0
5000.001,,424.526,474.204,,0,0
5066.668,,424.444,474.208,,0,0
5133.333,,424.548,474.063,,0,0
5199.999,,424.378,474.079,,0,0
5266.665,,424.344,473.953,,0,0
5333.333,,424.176,474.085,,0,0
5400.001,,424.25,473.996,,0,0
5466.663,,424.177,473.704,,0,0
5533.336,,424.16,473.742,,0,0
5599.998,,424.274,473.79,,0,0
5666.665,,423.986,473.686,,0,0
5733.335,,423.9,473.617,,0,0
5800.002,,423.991,473.669,,0,0
5866.666,,423.979,473.758,,0,0
5933.33,,423.819,473.57,,0,0
6000.002,,424.048,473.753,,0,0
6066.664,,423.738,473.415,,0,0
6133.335,,424.004,473.49,,0,0
6200.003,,423.795,473.54,,0,0
6266.667,,423.642,473.303,,0,0
6333.332,,423.668,473.103,,0,0
6399.996,,423.635,473.206,,0,0
6466.664,,423.686,473.442,,0,0
6533.332,,423.53,473.28,,0,0
6600.002,,423.523,473.351,,0,0
6666.667,,423.417,473.253,,0,0
6733.33,,423.605,473.047,,0,0
6799.996,,423.156,473.062,,0,0
6866.664,,423.475,473.188,,0,0
6933.33,,423.266,472.994,,0,0
6999.997,,423.6,473.125,,0,0
7066.665,,423.043,472.945,,0,0
7133.333,,423.231,473.059,,0,0
7199.998,,423.195,472.932,,0,0
7266.667,,423.253,472.914,,0,0
7333.334,,423.071,473.018,,0,0
7400.0,,423.166,472.822,,0,0
7466.668,,423.11,472.829,,0,0
7533.331,,422.819,472.85,,0,0
7599.997,,423.072,472.83,,0,0
7666.663,,423.005,472.752,,0,0
7733.336,,422.796,472.494,,0,0
7799.997,,422.612,472.477,,0,0
7866.668,,422.735,472.625,,0,0
7933.334,,422.712,472.542,,0,0
7999.998,,422.685,472.616,,0,0
8066.666,,422.59,472.434,,0,0
8133.331,,422.554,472.614,,0,0
8200.002,,422.767,472.453,,0,0
8266.665,,422.707,472.49,,0,0
8333.333,,422.446,472.524,,0,0
8399.996,,422.562,472.197,,0,0
8466.666,,422.535,472.379,,0,0
8533.335,,422.313,472.46,,0,0
8599.997,,422.367,472.404,,0,0
8666.666,,422.368,472.2,,0,0
8733.332,,422.13,472.275,,0,0
8799.997,,422.314,471.932,,0,0
8866.666,,422.357,472.16,,0,0
8933.332,,422.314,472.207,,0,0
8999.998,,422.3,471.892,,0,0
9066.666,,422.23,471.967,,0,0
9133.334,,421.968,472.086,,0,0
9199.999,,422.111,471.852,,0,0
9266.667,,422.048,471.993,,0,0
9333.335,,422.003,472.267,,0,0
9399.998,,422.126,472.117,,0,0
9466.664,,422.031,471.999,,0,0
9533.335,,421.859,471.968,,0,0
9599.999,,421.941,471.871,,0,0
9666.664,,421.755,471.651,,0,0
9733.33,,421.797,471.763,,0,0
9799.996,,421.698,471.732,,0,0
9866.666,,421.641,471.529,,0,0
9933.333,,421.531,471.859,,0,0
10000.0,,421.421,471.711,,0,0
10066.669,,421.675,471.65,,0,0
10133.329,,421.371,471.351,,0,0
10199.996,,421.498,471.413,,0,0
10266.666,,421.613,471.599,,0,0
10333.331,,421.488,471.404,,0,0
10400.001,,421.406,471.417,,0,0
10466.667,,421.509,471.436,,0,0
10533.331,,421.376,471.49,,0,0
10599.999,,421.372,471.373,,0,0
10666.665,,421.331,471.347,,0,0
10733.33,,421.264,471.208,,0,0
10800.001,,421.136,471.203,,0,0
10866.663,,421.1,471.18,,0,0
10933.335,,421.061,471.306,,0,0
10999.998,,421.159,471.212,,0,0
11066.668,,421.113,470.768,,0,0
11133.333,,421.172,471.37,,0,0
11199.998,,420.897,471.314,,0,0
11266.667,,421.142,471.095,,0,0
11333.331,,421.011,471.054,,0,0
11399.996,,421.172,471.149,,0,0
11466.663,,421.023,470.895,,0,0
11533.334,,420.947,471.033,,0,0
11599.996,,420.786,471.198,,0,0
11666.667,,421.018,471.079,,0,0
11733.334,,420.681,470.724,,0,0
11800.001,,420.788,470.838,,0,0
11866.668,,420.626,470.725,,0,0
11933.33,,420.587,470.911,,0,0
11999.996,,420.798,470.805,,0,0
12066.662,,420.604,470.749,,0,0
12133.331,,420.483,470.781,,0,0
12200.0,,420.632,470.855,,0,0
12266.667,,420.386,470.651,,0,0
12333.333,,420.56,470.709,,0,0
12399.996,,420.673,470.545,,0,0
12466.668,,420.363,470.563,,0,0
12533.335,,420.456,470.658,,0,0
12600.001,,420.504,470.653,,0,0
12666.667,,420.293,470.314,,0,0
12733.335,,420.216,470.453,,0,0
12800.001,,420.34,470.482,,0,0
12866.669,,420.352,470.446,,0,0
12933.334,,420.314,470.475,,0,0
12999.999,,420.245,470.334,,0,0
13066.664,,420.392,470.342,,0,0
13133.333,,419.887,470.462,,0,0
13200.002,,420.113,470.188,,0,0
13266.663,,419.902,470.35,,0,0
13333.329,,419.803,470.174,,0,0
13399.999,,419.841,470.469,,0,0
13466.668,,420.007,470.283,,0,0
13533.335,,419.991,470.338,,0,0
13600.001,,419.984,470.059,,0,0
13666.668,,419.852,469.946,,0,0
13733.331,,419.917,470.317,,0,0
13799.999,,419.891,470.232,,0,0
13866.665,,419.868,470.151,,0,0
13933.332,,419.81,469.911,,0,0
13999.997,,419.772,469.898,,0,0
14066.667,,419.731,469.995,,0,0
14133.334,,419.833,469.973,,0,0
14199.999,,419.754,470.037,,0,0
14266.669,,419.575,469.961,,0,0
14333.335,,419.846,469.775,,0,0
14400.0,,419.51,469.872,,0,0
14466.663,,419.661,469.983,,0,0
14533.331,,419.501,469.924,,0,0
14600.0,,419.518,469.894,,0,0
14666.665,,419.254,469.813,,0,0
14733.33,,419.501,469.59,,0,0
14800.002,,419.436,469.734,,0,0
14866.667,,419.411,469.651,,0,0
14933.332,,419.455,469.667,,0,0
15000.001,,419.325,469.611,,0,0
15066.666,,419.459,469.409,,0,0
15133.331,,419.211,469.6,,0,0
15199.999,,419.093,469.743,,0,0
15266.663,,419.292,469.501,,0,0
15333.333,,419.053,469.631,,0,0
15399.998,,419.208,469.23,,0,0
15466.667,,419.237,469.36,,0,0
15533.335,,419.15,469.348,,0,0
15599.999,,419.201,469.504,,0,0
15666.664,,419.187,469.454,,0,0
15733.33,,419.005,469.258,,0,0
15799.998,,419.26,469.397,,0,0
15866.668,,419.015,469.206,,0,0
15933.33,,419.029,469.272,,0,0
15999.982,,418.989,469.289,,0,0
16066.631,,419.112,469.494,,0,0
16133.278,,418.705,469.297,,0,0
16199.933,,419.032,469.257,,0,0
16266.582,,418.88,469.168,,0,0
16333.227,,418.837,469.204,,0,0
16399.875,,418.786,469.241,,0,0
16466.525,,418.725,469.144,,0,0
16533.177,,418.713,469.097,,0,0
16599.823,,418.719,469.162,,0,0
16666.472,,418.802,469.121,,0,0
16733.12,,418.831,469.076,,0,0
16799.765,,418.486,468.969,,0,0
16866.413,,418.349,469.065,,0,0
16933.064,,418.553,468.889,,0,0
16999.708,,418.512,469.148,,0,0
17066.355,,418.555,468.889,,0,0
17133.003,,418.491,468.734,,0,0
17199.653,,418.43,468.764,,0,0
17266.298,,418.631,468.841,,0,0
17332.943,,418.539,468.847,,0,0
17399.593,,418.382,469.009,,0,0
17466.236,,418.441,468.888,,0,0
17532.885,,418.535,468.746,,0,0
17599.531,,418.423,468.809,,0,0
17666.178,,418.298,468.694,,0,0
17732.819,,418.413,468.783,,0,0
17799.466,,418.289,468.828,,0,0
17866.114,,418.406,468.808,,0,0
17932.762,,418.222,468.781,,0,0
17999.403,,418.27,468.881,,0,0
18066.048,,418.434,468.75,,0,0
18132.699,,418.206,468.794,,0,0
18199.341,,418.089,468.624,,0,0
18265.983,,417.985,468.637,,0,0
18332.627,,417.992,468.671,,0,0
18399.273,,417.988,468.681,,0,0
18465.92,,418.125,468.421,,0,0
18532.564,,418.151,468.444,,0,0
18599.203,,418.013,468.539,,0,0
18665.852,,417.994,468.525,,0,0
18732.491,,417.812,468.411,,0,0
18799.139,,417.958,468.434,,0,0
18865.779,,417.963,468.558,,0,0
18932.428,,417.916,468.298,,0,0
18999.069,,417.817,468.565,,0,0
19065.712,,417.999,468.333,,0,0
19132.351,,417.768,468.105,,0,0
19198.997,,417.812,468.341,,0,0
19265.642,,417.668,468.331,,0,0
19332.284,,417.657,468.28,,0,0
19398.922,,417.624,468.461,,0,0
19465.567,,417.713,468.13,,0,0
19532.211,,417.523,468.085,,0,0
19598.847,,417.548,468.228,,0,0
19665.496,,417.516,468.321,,0,0
19732.134,,417.689,468.254,,0,0
19798.775,,417.418,468.212,,0,0
19865.417,,417.387,467.959,,0,0
19932.057,,417.586,468.195,,0,0
19998.696,,417.476,468.208,,0,0
20065.338,,417.785,468.141,,0,0
20131.985,,417.446,468.136,,0,0
20198.621,,417.362,467.999,,0,0
20265.266,,417.446,468.042,,0,0
20331.9,,417.262,467.683,,0,0
20398.542,,417.383,467.706,,0,0
20465.181,,417.389,467.771,,0,0
20531.823,,417.31,467.789,,0,0
20598.461,,417.233,467.855,,0,0
20665.103,,417.352,467.869,,0,0
20731.739,,417.127,467.921,,0,0
20798.385,,417.064,467.681,,0,0
20865.023,,417.07,467.845,,0,0
20931.662,,417.241,467.651,,0,0
20998.296,,417.244,468.004,,0,0
21064.94,,417.308,467.836,,0,0
21131.579,,417.068,467.658,,0,0
21198.215,Input1*2*0,417.096,467.867,,1,0
21264.852,Input1*2*1,417.259,467.739,,0,0
21331.49,,417.08,467.685,,0,0
21398.129,,416.946,467.511,,0,0
21464.768,,417.014,467.556,,0,0
21531.404,,417.07,467.478,,0,0
21598.044,,416.756,467.413,,0,0
21664.681,,416.978,467.385,,0,0
21731.318,,416.896,467.492,,0,0
21797.957,,416.74,467.555,,0,0
21864.595,,416.877,467.488,,0,0
21931.227,,416.8,467.62,,0,0
21997.865,,416.862,467.475,,0,0
22064.506,,416.676,467.333,,0,0
22131.142,,416.952,467.433,,0,0
22197.777,,416.819,467.133,,0,0
22264.414,,416.687,467.369,,0,0
22331.049,,416.614,467.503,,0,0
22397.684,,416.571,467.35,,0,0
22464.32,,416.505,467.176,,0,0
22530.953,,416.554,467.286,,0,0
22597.591,,416.68,467.333,,0,0
22664.231,,416.622,467.152,,0,0
22730.86,,416.419,467.446,,0,0
22797.498,,416.599,467.37,,0,0
22864.132,,416.663,467.149,,0,0
22930.77,,416.441,467.141,,0,0
22997.401,,416.489,467.097,,0,0
23064.034,,416.39,466.925,,0,0
23130.674,,416.268,466.774,,0,0
23197.307,,416.309,467.143,,0,0
23263.938,,416.551,467.121,,0,0
23330.574,,416.502,467.031,,0,0
23397.208,,416.469,466.884,,0,0
23463.844,,416.485,466.908,,0,0
23530.476,,416.213,466.792,,0,0
23597.105,,416.176,466.948,,0,0
23663.743,,416.23,466.905,,0,0
23730.374,,416.179,466.855,,0,0
23797.005,,416.186,466.804,,0,0
23863.643,,416.266,466.945,,0,0
23930.274,,415.944,466.805,,0,0
23996.928,,416.096,466.987,,0,0
24063.587,,416.052,466.801,,0,0
24130.242,,416.019,466.585,,0,0
24196.905,,415.977,466.836,,0,0
24263.558,,415.768,466.734,,0,0
24330.213,,415.886,466.792,,0,0
24396.875,,415.967,466.705,,0,0
24463.527,,415.818,466.632,,0,0
24530.186,,416.128,466.49,,0,0
24596.845,,415.85,466.719,,0,0
24663.505,,415.835,466.543,,0,0
24730.159,,415.852,466.719,,0,0
24796.815,,415.879,466.581,,0,0
24863.472,,416.02,466.332,,0,0
24930.128,,415.951,466.563,,0,0
24996.784,,415.72,466.421,,0,0
25063.442,,415.561,466.561,,0,0
25130.103,,415.775,466.392,,0,0
25196.756,,415.685,466.46,,0,0
25263.417,,415.615,466.353,,0,0
25330.076,,415.579,466.602,,0,0
25396.734,,415.747,466.446,,0,0
25463.388,,415.648,466.325,,0,0
25530.034,,415.703,466.35,,0,0
25596.701,,415.72,466.279,,0,0
25663.359,,415.571,466.325,,0,0
25730.017,,415.547,466.323,,0,0
25796.674,,415.498,466.227,,0,0
25863.333,,415.305,466.174,,0,0
25929.985,,415.661,466.143,,0,0
25996.646,,415.273,466.282,,0,0
26063.303,,415.363,466.183,,0,0
26129.958,,415.234,466.262,,0,0
26196.613,,415.41,466.208,,0,0
26263.268,,415.401,466.103,,0,0
26329.93,,415.269,466.2,,0,0
26396.582,,415.332,466.2,,0,0
26463.243,,415.407,466.196,,0,0
26529.9,,415.097,466.119,,0,0
26596.555,,415.248,466.1,,0,0
26663.213,,415.274,466.177,,0,0
26729.873,,415.327,465.926,,0,0
26796.526,,415.27,465.979,,0,0
26863.182,,415.224,465.868,,0,0
26929.841,,415.127,465.964,,0,0
26996.501,,415.058,465.982,,0,0
27063.154,,415.003,465.984,,0,0
27129.811,,415.122,465.936,,0,0
27196.469,,415.065,465.874,,0,0
27263.128,,415.072,465.972,,0,0
27329.784,,414.948,465.734,,0,0
27396.437,,414.988,465.835,,0,0
27463.095,,415.107,465.843,,0,0
27529.752,,414.84,465.949,,0,0
27596.413,,415.194,465.82,,0,0
27663.067,,414.754,465.572,,0,0
27729.721,,414.787,465.745,,0,0
27796.383,,414.879,465.884,,0,0
27863.041,,414.584,465.734,,0,0
27929.692,,414.916,465.681,,0,0
27996.352,,414.723,465.663,,0,0
28063.011,,414.862,465.895,,0,0
28129.669,,414.683,465.774,,0,0
28196.323,,414.622,465.459,,0,0
28262.979,,414.595,465.65,,0,0
28329.634,,414.765,465.58,,0,0
28396.29,,414.638,465.591,,0,0
28462.948,,414.446,465.495,,0,0
28529.609,,414.666,465.54,,0,0
28596.264,,414.561,465.344,,0,0
28662.921,,414.659,465.555,,0,0
28729.577,,414.568,465.644,,0,0
28796.232,,414.473,465.365,,0,0
28862.891,,414.513,465.52,,0,0
28929.548,,414.525,465.346,,0,0
28996.205,,414.432,465.449,,0,0
29062.858,,414.491,465.406,,0,0
29129.516,,414.376,465.53,,0,0
29196.174,,414.479,465.168,,0,0
29262.832,,414.394,465.456,,0,0
29329.488,,414.307,465.374,,0,0
29396.146,,414.435,465.316,,0,0
29462.804,,414.303,465.42,,0,0
29529.462,,414.331,465.154,,0,0
29596.111,,414.362,465.288,,0,0
29662.772,,414.336,465.192,,0,0
29729.428,,414.377,465.231,,0,0
29796.084,,414.28,465.314,,0,0
29862.741,,414.464,465.134,,0,0
29929.395,,414.287,465.224,,0,0
29996.055,,414.437,465.167,,0,0
30062.712,,414.055,464.892,,0,0
30129.37,,414.269,465.096,,0,0
30196.028,,414.17,465.146,,0,0
30262.685,,414.102,465.12,,0,0
30329.336,,414.107,464.904,,0,0
30395.992,,414.108,464.953,,0,0
30462.649,,413.81,464.925,,0,0
30529.308,Input1*2*0,413.988,465.151,,0,1
30595.966,,413.928,465.008,,0,0
30662.619,,414.015,465.102,,0,0
30729.279,,413.969,464.929,,0,0
30795.933,,414.001,464.716,,0,0
30862.588,,413.868,464.806,,0,0
30929.246,,413.909,464.924,,0,0
30995.904,Input1*2*1,414.016,465.014,,0,0
31062.559,,413.861,464.802,,0,0
31129.217,,413.853,464.896,,0,0
31195.876,,413.758,464.969,,0,0
31262.534,,413.828,464.791,,0,0
31329.189,,413.8,464.665,,0,0
31395.847,,413.715,464.833,,0,0
31462.503,,413.596,464.883,,0,0
31529.156,,413.439,464.814,,0,0
31595.817,,413.897,464.688,,0,0
31662.47,,413.548,464.638,,0,0
31729.127,,413.758,464.68,,0,0
31795.782,,413.611,464.577,,0,0
31862.439,,413.405,464.808,,0,0
31929.095,,413.475,464.458,,0,0
31995.757,,413.506,464.517,,0,0
32062.416,,413.622,464.517,,0,0
32129.073,,413.5,464.596,,0,0
32195.733,,413.386,464.573,,0,0
32262.391,,413.45,464.543,,0,0
32329.046,,413.591,464.352,,0,0
32395.707,,413.3,464.359,,0,0
32462.364,,413.234,464.491,,0,0
32529.023,,413.255,464.282,,0,0
32595.681,,413.303,464.344,,0,0
32662.338,,413.384,464.401,,0,0
32728.995,,413.282,464.524,,0,0
32795.652,,413.364,464.376,,0,0
32862.313,,413.307,464.213,,0,0
32928.97,,413.361,464.307,,0,0
32995.631,,413.253,464.048,,0,0
33062.288,,413.328,464.395,,0,0
33128.948,,413.219,464.28,,0,0
33195.606,,413.28,464.11,,0,0
33262.264,,413.084,464.156,,0,0
33328.921,,413.102,464.22,,0,0
33395.577,,413.002,464.037,,0,0
33462.234,,412.991,464.225,,0,0
33528.893,,413.085,463.929,,0,0
33595.552,,412.891,463.872,,0,0
33662.211,,412.912,463.767,,0,0
33728.872,,413.166,463.974,,0,0
33795.531,,412.931,464.066,,0,0
33862.188,,412.853,463.831,,0,0
33928.847,,412.82,463.932,,0,0
33995.503,,412.881,463.821,,0,0
34062.159,,412.853,463.933,,0,0
34128.82,,412.86,464.092,,0,0
34195.477,,412.601,463.857,,0,0
34262.138,,412.822,463.99,,0,0
34328.795,,412.734,464.059,,0,0
34395.454,,412.76,463.643,,0,0
34462.111,,412.7,463.526,,0,0
34528.766,,412.616,463.907,,0,0
34595.427,,412.637,463.924,,0,0
34662.086,,412.551,463.828,,0,0
34728.744,,412.572,463.492,,0,0
34795.399,,412.821,463.655,,0,0
34862.063,,412.718,463.606,,0,0
34928.718,,412.52,463.792,,0,0
34995.38,,412.514,463.562,,0,0
35062.039,,412.416,463.909,,0,0
35128.693,,412.418,463.687,,0,0
35195.349,,412.488,463.507,,0,0
35262.009,,412.394,463.541,,0,0
35328.669,,412.604,463.578,,0,0
35395.329,,412.383,463.458,,0,0
35461.982,,412.424,463.5,,0,0
35528.644,,412.392,463.465,,0,0
35595.299,,412.224,463.755,,0,0
35661.961,,412.189,463.475,,0,0
35728.62,,412.37,463.558,,0,0
35795.28,,412.094,463.419,,0,0
35861.933,,412.371,463.418,,0,0
35928.596,,412.407,463.429,,0,0
35995.252,,412.355,463.417,,0,0
36061.912,,412.253,463.3,,0,0
