{"Light":{"Led410Enable":true;"Led470Enable":true;"Led560Enable":false;"Led410Value":50.0;"Led470Value":50.0;"Led560Value":100.0};"Excitation":{"mode":1;"discontinuous":false;"interval_time":1;"continuous_time":1};"Channels":[{"Name":"CH1";"ChanelColor":"#00000000";"Roi1":"342.070422535211;258.785915492957;96.1521126760566;96.1521126760566";"Roi2":"319;227;96.1521126760566;96.1521126760566"}];"AllMarking":[{"id":0;"type":1;"opened":true;"name":"STIM";"Levels":0;"color":"#FFFF0000";"key":0;"threshold":0.0;"ID":"0";"all":true;"channels":["AllChannel";"CH1"];"enable":true};{"id":0;"type":2;"opened":true;"name":"Input1";"Levels":0;"color":"#FFFF0000";"key":0;"threshold":0.0;"ID":"0";"all":true;"channels":["AllChannel";"CH1"];"enable":true};{"id":0;"type":2;"opened":true;"name":"Input2";"Levels":0;"color":"#FF604A7B";"key":0;"threshold":0.0;"ID":"0";"all":true;"channels":["AllChannel";"CH1"];"enable":true};{"id":0;"type":2;"opened":true;"name":"Input3";"Levels":0;"color":"#FF92D050";"key":0;"threshold":0.0;"ID":"0";"all":true;"channels":["AllChannel";"CH1"];"enable":true};{"id":0;"type":2;"opened":true;"name":"Input4";"Levels":0;"color":"#FF0099FF";"key":0;"threshold":0.0;"ID":"0";"all":true;"channels":["AllChannel";"CH1"];"enable":true}];"Fps":30.0}
TimeStamp,Events,CH1-410,CH1-470,
0.000,,490.249,532.824,
66.665,,489.921,531.920,
133.332,,488.791,531.157,
199.995,,488.563,530.341,
266.668,,487.714,530.017,
333.329,,487.169,529.316,
400.001,,486.573,528.680,
466.667,,486.185,528.036,
533.334,,485.644,527.865,
599.995,,484.910,527.280,
666.666,,484.541,526.970,
733.334,,484.087,526.002,
800.001,,483.701,525.724,
866.665,,483.030,525.245,
933.333,,482.759,524.909,
999.996,,482.271,524.537,
1066.663,,481.740,524.179,
1133.331,,481.577,523.748,
1199.998,,481.063,523.848,
1266.667,,480.913,523.221,
1333.334,,480.290,522.890,
1399.999,,480.001,522.511,
1466.661,,479.512,522.275,
1533.334,,479.157,521.936,
1599.996,,478.884,521.514,
1666.666,,478.793,521.348,
1733.332,,478.477,521.154,
1799.998,,478.019,521.024,
1866.665,,477.671,520.558,
1933.333,,477.070,520.348,
1999.997,,477.047,519.840,
2066.668,,476.796,519.686,
2133.330,,476.432,519.194,
2199.999,,476.019,519.257,
2266.667,,475.784,519.013,
2333.331,,475.344,518.457,
2399.997,,475.240,518.333,
2466.665,,474.770,517.928,
2533.333,,474.711,517.832,
2599.998,,474.218,517.584,
2666.668,,473.936,517.248,
2733.329,,473.694,517.149,
2799.999,,473.487,517.015,
2866.668,,473.289,516.672,
2933.332,,472.909,516.585,
3000.001,,472.778,516.317,
3066.668,,472.578,515.934,
3133.329,,472.193,515.803,
3199.996,,472.081,515.691,
3266.663,,471.884,515.358,
3333.332,,471.536,515.203,
3400.001,,471.247,515.180,
3466.665,,471.095,514.673,
3533.330,,470.884,514.354,
3599.999,,470.504,514.328,
3666.662,,470.350,514.398,
3733.334,,470.147,514.004,
3799.996,,469.922,513.840,
3866.662,,469.676,513.744,
3933.328,,469.378,513.478,
4000.000,,469.068,513.281,
4066.663,,469.075,513.116,
4133.332,,468.819,512.931,
4199.997,,468.714,512.454,
4266.668,,468.577,512.698,
4333.329,,468.340,512.421,
4400.001,,467.988,512.071,
4466.665,,467.861,511.955,
4533.331,,467.495,511.886,
4599.996,,467.555,511.757,
4666.662,,467.124,511.616,
4733.328,,467.032,511.279,
4799.999,,467.118,511.269,
4866.665,,466.653,511.273,
4933.331,,466.378,510.738,
4999.997,,466.358,510.640,
5066.662,,466.479,510.686,
5133.333,,465.628,510.461,
5199.997,,465.743,510.183,
5266.666,,465.430,510.285,
5333.335,,465.213,509.899,
5399.999,,465.188,509.540,
5466.666,,464.861,509.680,
5533.331,,464.918,509.454,
5599.999,,464.613,509.312,
5666.664,,464.388,509.137,
5733.332,,464.393,509.149,
5800.001,,464.114,508.927,
5866.667,,464.017,508.798,
5933.333,,463.787,508.613,
5999.995,,463.588,508.297,
6066.665,,463.496,508.525,
6133.332,,463.310,508.304,
6199.996,,463.032,508.349,
6266.666,,462.867,507.681,
6333.330,,462.908,507.885,
6400.001,,462.601,507.614,
6466.662,,462.356,507.601,
6533.334,,462.240,507.394,
6599.997,,461.990,507.387,
6666.663,,462.003,507.251,
6733.333,,461.882,506.841,
6799.995,,461.624,506.905,
6866.666,,461.612,506.917,
6933.329,,461.228,506.768,
6999.997,,461.201,506.320,
7066.662,,461.247,506.465,
7133.329,,460.983,506.237,
7199.997,,460.878,506.301,
7266.666,,460.693,505.830,
7333.333,,460.410,505.961,
7399.995,,460.383,505.705,
7466.662,,459.953,505.955,
7533.330,,460.073,505.643,
7600.000,,459.937,505.547,
7666.664,,459.935,505.334,
7733.330,,459.658,505.324,
7799.995,,459.480,505.271,
7866.665,,459.270,504.776,
7933.333,,459.359,505.058,
8000.001,,458.941,504.814,
8066.665,,459.185,504.523,
8133.332,,458.716,504.695,
8199.998,,458.682,504.419,
8266.663,,458.624,504.229,
8333.330,,458.318,504.007,
8399.998,,458.279,503.963,
8466.667,,458.122,503.864,
8533.331,,458.040,503.820,
8599.998,,458.145,503.881,
8666.664,,457.665,503.908,
8733.330,,457.627,503.337,
8800.001,,457.527,503.423,
8866.663,,457.411,503.326,
8933.333,,457.292,503.084,
8999.996,,457.321,502.961,
9066.668,,457.053,503.071,
9133.332,,456.865,502.923,
9200.001,,456.808,502.760,
9266.665,,456.571,502.620,
9333.334,,456.348,502.599,
9399.997,,456.235,502.320,
9466.665,,456.288,502.307,
9533.333,,456.275,502.237,
9599.997,,455.986,502.194,
9666.662,,455.957,501.787,
9733.333,,455.665,502.051,
9800.001,,455.687,501.796,
9866.668,,455.522,501.885,
9933.330,,455.652,502.060,
9999.999,,455.511,501.692,
10066.667,,455.371,501.437,
10133.334,,455.376,501.464,
10200.001,,455.002,501.440,
10266.665,,454.981,501.320,
10333.333,,454.830,501.019,
10400.000,,454.814,501.181,
10466.665,,454.624,500.951,
10533.334,,454.525,501.089,
10599.995,,454.524,500.857,
10666.663,,454.415,500.665,
10733.333,,454.137,500.628,
10800.001,,454.346,500.446,
10866.668,,454.110,500.338,
10933.328,,453.695,500.259,
10999.997,,453.738,500.313,
11066.667,,453.648,500.058,
11133.334,,453.565,500.161,
11199.997,,453.497,500.013,
11266.668,,453.365,499.813,
11333.333,,453.332,500.089,
11399.995,,453.087,499.847,
11466.666,,453.147,499.532,
11533.329,,452.874,499.590,
11599.995,,452.647,499.530,
11666.663,,452.814,499.233,
11733.332,,452.758,499.232,
11799.995,,452.561,499.419,
11866.665,,452.270,499.087,
11933.330,,452.304,498.995,
11999.995,,452.189,498.971,
12066.663,,452.136,498.893,
12133.335,,452.149,498.602,
12199.998,,451.929,498.833,
12266.667,,451.857,498.538,
12333.331,,451.535,498.467,
12400.001,,451.687,498.619,
12466.662,,451.328,498.381,
12533.333,,451.459,498.355,
12599.998,,451.548,498.235,
12666.665,,451.333,498.144,
12733.335,,451.101,498.164,
12799.996,,451.090,497.918,
12866.662,,451.145,497.976,
12933.335,,450.598,497.844,
12999.995,,450.823,497.798,
13066.668,,450.565,497.390,
13133.332,,450.709,497.546,
13199.996,,450.518,497.635,
13266.664,,450.338,497.186,
13333.335,,450.319,497.398,
13399.996,,450.208,497.286,
13466.667,,450.187,497.200,
13533.332,,449.973,497.255,
13599.996,,450.017,496.981,
13666.663,,450.087,496.965,
13733.330,,449.773,496.929,
13799.998,,449.648,496.745,
13866.663,,449.598,496.521,
13933.329,,449.850,496.650,
13999.996,,449.436,496.511,
14066.666,,449.469,496.361,
14133.329,,449.320,496.444,
14199.996,,449.014,496.339,
14266.662,,449.136,496.352,
14333.330,,448.778,496.256,
14399.996,,448.804,496.032,
14466.665,,448.850,496.024,
14533.331,,448.951,495.958,
14599.999,,448.480,496.087,
14666.663,,448.674,495.885,
14733.334,,448.507,495.622,
14800.000,,448.531,495.693,
14866.664,,448.181,495.714,
14933.329,,448.302,495.504,
14999.999,,448.184,495.549,
15066.663,,448.276,495.089,
15133.329,,448.148,495.262,
15199.995,,447.796,495.292,
15266.667,,447.934,495.264,
15333.334,,447.775,495.194,
15400.000,,447.906,495.162,
15466.664,,447.849,495.107,
15533.328,,447.728,494.986,
15599.998,,447.575,494.817,
15666.664,,447.332,494.814,
15733.333,,447.347,494.753,
15799.997,,447.073,494.510,
15866.665,,447.080,494.592,
15933.328,,447.101,494.358,
15999.976,,446.950,494.503,
16066.624,,447.109,494.312,
16133.277,,446.668,494.146,
16199.922,,446.786,494.156,
16266.571,,446.723,494.048,
16333.216,,446.796,494.123,
16399.867,,446.558,494.018,
16466.513,,446.563,493.953,
16533.162,,446.467,494.016,
16599.805,,446.209,493.920,
16666.452,,446.187,493.768,
16733.098,,446.354,493.697,
16799.742,,446.309,493.510,
16866.394,,446.222,493.509,
16933.039,,446.165,493.443,
16999.679,,445.710,493.545,
17066.326,,445.695,493.431,
17132.972,,445.887,493.357,
17199.616,,445.689,493.477,
17266.265,,445.665,493.343,
17332.905,,445.636,492.969,
17399.551,,445.530,493.076,
17466.195,,445.518,493.025,
17532.842,,445.166,493.116,
17599.487,,445.263,492.986,
17666.128,,445.181,492.789,
17732.778,,445.202,492.437,
17799.416,,444.967,492.538,
17866.062,,444.925,492.617,
17932.709,,445.136,492.774,
17999.350,,445.005,492.670,
18065.996,,444.819,492.410,
18132.640,,444.901,492.534,
18199.282,,444.574,492.250,
18265.925,,444.786,492.366,
18332.565,,444.566,492.074,
18399.206,,444.508,492.010,
18465.849,,444.312,492.022,
18532.494,,444.220,492.048,
18599.134,,444.194,491.917,
18665.779,,444.176,491.815,
18732.417,,444.079,491.859,
18799.057,,443.758,491.613,
18865.702,,444.000,491.835,
18932.344,,443.777,491.594,
18998.983,,443.610,491.668,
19065.624,,443.531,491.556,
19132.263,,443.556,491.426,
19198.904,,443.571,491.693,
19265.546,,443.574,491.507,
19332.187,,443.499,491.442,
19398.826,,443.404,491.301,
19465.470,,443.347,491.137,
19532.106,,443.294,491.195,
19598.744,,443.129,491.251,
19665.389,,443.010,491.071,
19732.022,,443.064,491.217,
19798.666,,442.881,490.890,
19865.304,,443.020,490.860,
19931.945,,442.808,490.795,
19998.583,,442.791,490.747,
20065.219,,442.683,490.552,
20131.860,,442.711,490.629,
20198.499,,442.500,490.642,
20265.136,,442.737,490.638,
20331.775,,442.475,490.420,
20398.413,,442.229,490.338,
20465.051,,442.262,490.496,
20531.689,,442.376,490.601,
20598.324,,442.233,490.319,
20664.962,,442.274,490.189,
20731.597,,442.104,490.201,
20798.232,,442.112,490.057,
20864.869,,441.948,490.196,
20931.510,,442.079,489.975,
20998.144,,441.779,489.892,
21064.778,,441.625,489.957,
21131.420,,441.473,489.558,
21198.050,,441.629,489.659,
21264.686,,441.684,489.608,
21331.325,,441.669,489.550,
21397.958,,441.379,489.604,
21464.594,,441.518,489.339,
21531.233,,441.430,489.525,
21597.867,,441.085,489.349,
21664.503,,441.282,489.473,
21731.138,,441.143,489.262,
21797.770,,441.163,489.416,
21864.407,,440.954,489.134,
21931.039,,441.098,489.072,
21997.676,,440.796,489.215,
22064.306,,440.798,489.009,
22130.942,,440.874,488.918,
22197.574,,440.950,488.931,
22264.210,,440.884,488.957,
22330.842,,440.518,488.830,
22397.472,,440.632,488.868,
22464.108,,440.622,488.698,
22530.740,,440.371,488.632,
22597.374,,440.405,488.694,
22664.006,,440.268,488.434,
22730.641,,440.279,488.395,
22797.271,,440.288,488.359,
22863.900,,440.132,488.304,
22930.533,,440.188,488.430,
22997.165,,440.199,488.313,
23063.798,,440.077,488.390,
23130.427,,439.781,488.161,
23197.065,,439.643,488.100,
23263.692,,439.751,488.237,
23330.323,,439.843,487.925,
23396.956,,439.758,487.862,
23463.584,,439.706,487.915,
23530.217,,439.511,487.940,
23596.848,,439.518,488.074,
23663.479,,439.469,487.718,
23730.109,,439.383,487.919,
23796.739,,439.202,487.748,
23863.369,,439.178,487.763,
23929.997,,439.321,487.533,
23996.654,,439.261,487.632,
24063.315,,438.948,487.687,
24129.968,,438.959,487.500,
24196.630,,439.099,487.405,
24263.289,,438.835,487.159,
24329.950,,438.750,487.329,
24396.607,,438.916,487.147,
24463.260,,439.015,487.295,
24529.922,Input1*2*0,438.848,487.086,
24596.581,,438.776,487.353,
24663.242,Input1*2*1,438.664,487.032,
24729.901,,438.496,486.941,
24796.559,,438.251,487.136,
24863.212,,438.584,486.979,
24929.876,,438.350,486.777,
24996.534,,438.256,486.818,
25063.190,,438.154,486.595,
25129.848,,438.314,486.632,
25196.505,,438.114,486.548,
25263.169,,438.062,486.651,
25329.824,,437.903,486.397,
25396.486,,438.117,486.487,
25463.141,,438.010,486.440,
25529.799,,438.061,486.232,
25596.457,,437.983,486.309,
25663.114,,437.925,486.637,
25729.775,,437.935,486.482,
25796.436,,437.563,486.292,
25863.096,,437.823,486.062,
25929.752,,437.806,486.236,
25996.407,,437.729,486.181,
26063.070,,437.773,486.074,
26129.726,,437.600,486.211,
26196.385,,437.375,485.785,
26263.045,,437.383,485.904,
26329.707,,437.315,485.837,
26396.360,,437.458,485.871,
26463.021,,437.289,485.693,
26529.677,,437.044,485.646,
26596.341,,436.892,485.624,
26662.998,,437.352,485.492,
26729.653,,437.104,485.560,
26796.316,,436.952,485.783,
26862.976,,436.944,485.591,
26929.631,,437.054,485.605,
26996.294,,436.880,485.689,
27062.947,,436.844,485.489,
27129.609,,436.852,485.514,
27196.270,,436.767,485.351,
27262.929,,436.730,485.370,
27329.585,,436.647,485.254,
27396.246,,436.645,485.311,
27462.899,,436.499,485.143,
27529.562,,436.434,484.920,
27596.223,,436.494,485.015,
27662.880,,436.300,485.071,
27729.539,,436.018,484.954,
27796.197,,436.343,484.751,
27862.857,,436.206,484.894,
27929.515,,435.992,484.856,
27996.171,,436.189,484.608,
28062.831,,436.069,484.597,
28129.493,,435.922,484.762,
28196.148,,435.973,484.649,
28262.806,,435.930,484.502,
28329.469,,435.834,484.560,
28396.125,,435.852,484.547,
28462.787,,435.870,484.293,
28529.442,,435.675,484.327,
28596.098,,435.657,484.391,
28662.758,,435.612,484.319,
28729.422,,435.639,484.345,
28796.078,,435.533,484.147,
28862.739,,435.495,484.196,
28929.395,,435.401,484.112,
28996.055,,435.201,484.048,
29062.717,,435.165,484.083,
29129.371,,435.208,484.111,
29196.034,,435.361,483.932,
29262.692,,434.992,483.771,
29329.349,,435.474,483.638,
29396.006,,435.190,483.910,
29462.669,,434.985,483.976,
29529.326,,435.085,483.672,
29595.984,,434.892,483.771,
29662.641,,434.823,483.735,
29729.303,,435.013,483.783,
29795.965,,434.881,483.736,
29862.622,,434.867,483.373,
29929.277,,434.759,483.396,
29995.941,,434.617,483.397,
30062.595,,434.835,483.356,
30129.255,,434.567,483.217,
30195.917,,434.621,483.200,
30262.574,,434.384,483.170,
30329.237,,434.355,483.083,
30395.895,,434.449,482.977,
30462.552,,434.282,483.022,
30529.210,,434.485,483.218,
30595.869,,434.030,483.105,
30662.528,,434.337,483.087,
30729.187,,434.191,483.089,
30795.846,,434.100,483.004,
30862.509,,433.896,482.921,
30929.169,,434.290,483.027,
30995.827,,433.977,482.895,
31062.482,,434.062,482.787,
31129.143,,433.871,482.626,
31195.801,,434.007,482.818,
31262.457,,433.777,482.606,
31329.122,,433.554,482.552,
31395.780,,433.699,482.363,
31462.435,,433.534,482.540,
31529.095,,433.466,482.607,
31595.759,,433.696,482.491,
31662.413,,433.433,482.318,
31729.073,,433.208,482.324,
31795.734,,433.244,482.303,
31862.394,,433.346,482.228,
31929.049,,433.378,482.303,
31995.714,,433.286,482.207,
32062.368,,433.143,482.251,
32129.025,,433.239,482.164,
32195.685,,433.271,482.219,
32262.348,,432.932,482.085,
32329.004,,433.147,482.057,
32395.662,,433.050,481.739,
32462.319,,432.873,481.931,
32528.980,,432.912,481.884,
32595.640,,432.746,481.612,
32662.296,,432.787,481.394,
32728.955,,432.827,481.734,
32795.616,,432.880,481.696,
32862.269,,432.729,481.451,
32928.928,,432.808,481.324,
32995.589,,432.435,481.719,
33062.250,,432.471,481.532,
33128.908,,432.350,481.449,
33195.569,,432.325,481.376,
33262.223,,432.466,481.373,
33328.884,,432.397,481.419,
33395.543,,432.403,481.447,
33462.201,,432.217,481.299,
33528.859,,432.464,481.289,
33595.515,,432.367,481.164,
33662.176,,432.006,480.929,
33728.835,,432.041,481.170,
33795.493,,432.141,481.082,
33862.152,,432.212,481.090,
33928.811,,432.016,481.050,
33995.467,,432.136,480.892,
34062.131,,431.894,481.021,
34128.787,,431.804,481.097,
34195.449,,431.714,480.848,
34262.108,,431.747,480.632,
34328.765,,431.680,480.863,
34395.426,,431.576,480.889,
34462.083,,431.743,480.944,
34528.743,,432.009,480.826,
34595.397,,431.705,480.615,
34662.058,,431.642,480.716,
34728.719,,431.535,480.515,
34795.377,,431.394,480.545,
34862.036,,431.386,480.452,
34928.689,,431.308,480.444,
34995.349,,431.350,480.468,
35062.009,,431.314,480.455,
35128.669,,431.330,480.330,
35195.327,,431.134,480.163,
35261.985,,431.249,480.225,
35328.642,,431.315,480.126,
35395.301,,430.967,480.205,
35461.965,,431.057,480.167,
35528.618,Input1*2*0,431.006,480.101,
35595.278,,430.777,480.080,
35661.937,,431.046,480.287,
35728.595,,430.929,480.095,
35795.256,,430.892,480.029,
35861.918,,430.995,480.012,
35928.575,,430.759,479.881,
35995.235,Input1*2*1,430.801,479.980,
36061.894,,430.655,479.955,
36128.549,,430.655,479.766,
36195.209,,430.476,479.656,
36261.865,,430.680,479.675,
36328.528,,430.516,479.824,
36395.187,,430.415,479.722,
36461.847,,430.544,479.678,
36528.503,,430.478,479.600,
36595.164,,430.391,479.660,
36661.824,,430.285,479.470,
36728.483,,430.304,479.281,
36795.137,,430.314,479.350,
36861.799,,430.134,479.640,
36928.460,,430.138,479.547,
36995.114,,430.213,479.444,
37061.777,,430.232,479.538,
37128.435,,430.031,479.599,
37195.093,,430.008,479.404,
37261.753,,430.003,479.252,
37328.409,,429.839,479.202,
37395.066,,429.970,478.990,
37461.729,,429.893,479.266,
37528.389,,429.736,479.125,
37595.044,,429.891,479.151,
37661.702,,429.654,479.105,
37728.366,,429.619,479.123,
37795.019,,429.584,478.876,
37861.684,,429.527,478.850,
37928.341,,429.547,478.871,
37995.001,,429.625,478.816,
38061.657,,429.701,479.066,
38128.314,,429.446,478.965,
38194.973,,429.390,478.993,
38261.633,,429.567,478.881,
38328.293,,429.405,478.766,
38394.953,,429.416,478.731,
38461.614,,429.244,478.748,
38528.270,,429.318,478.773,
38594.927,,429.190,478.675,
38661.584,,429.346,478.564,
38728.245,,429.162,478.488,
38794.908,,429.138,478.513,
38861.568,,429.150,478.291,
38928.226,,429.179,478.442,
38994.880,,428.891,478.338,
39061.539,,428.931,478.502,
39128.199,,429.155,478.149,
39194.858,,428.952,478.435,
39261.518,,429.126,478.194,
39328.174,,428.605,478.454,
39394.837,,428.832,478.244,
39461.493,,428.818,478.315,
39528.152,,428.800,478.435,
39594.810,,428.732,478.300,
39661.472,,428.763,478.051,
39728.132,,428.741,478.442,
39794.788,,428.466,478.041,
39861.451,,428.461,477.985,
39928.111,,428.653,478.079,
39994.766,,428.537,478.102,
40061.423,,428.415,477.870,
40128.080,,428.356,477.967,
40194.742,,428.429,477.845,
40261.399,,428.326,477.790,
40328.055,,428.377,477.682,
40394.709,,428.408,477.794,
40461.367,,428.228,477.825,
40528.029,,428.158,477.693,
40594.687,,428.048,477.738,
40661.342,,428.051,477.649,
40727.998,,428.183,477.704,
40794.657,,428.211,477.790,
40861.315,,428.091,477.696,
40927.970,,427.853,477.720,
40994.634,,427.981,477.630,
41061.291,,428.029,477.455,
41127.947,,427.872,477.706,
41194.604,,427.922,477.561,
41261.265,,428.107,477.513,
41327.920,,427.842,477.503,
41394.580,,427.852,477.435,
41461.232,,427.829,477.461,
41527.889,,427.812,477.386,
41594.549,,427.882,477.421,
41661.210,,427.696,477.402,
41727.867,,427.551,477.459,
41794.522,,427.799,477.049,
41861.183,,427.619,477.009,
41927.835,,427.645,477.081,
41994.496,,427.397,477.242,
42061.156,,427.580,477.162,
42127.810,,427.581,477.143,
42194.471,,427.546,477.266,
42261.128,,427.369,477.266,
42327.781,,427.219,477.223,
42394.443,,427.306,477.170,
42461.099,,427.327,477.026,
42527.759,,427.374,477.127,
42594.415,,427.244,476.861,
42661.075,,427.235,476.909,
42727.729,,427.299,476.982,
42794.385,,427.251,477.028,
42861.047,,427.098,476.847,
42927.705,,427.163,476.678,
42994.359,,427.212,476.779,
43061.017,,427.229,476.849,
43127.673,,426.870,476.610,
43194.330,,426.783,476.947,
43260.989,,427.125,476.614,
43327.647,,426.738,476.824,
43394.308,,426.920,476.436,
43460.961,,426.854,476.756,
43527.619,,426.935,476.665,
43594.279,,426.927,476.458,
43660.933,,426.822,476.630,
43727.593,,426.652,476.356,
43794.254,,426.693,476.544,
43860.911,,426.567,476.589,
43927.564,,426.534,476.448,
43994.221,,426.585,476.461,
44060.879,,426.788,476.394,
44127.536,,426.564,476.465,
44194.195,,426.491,476.283,
44260.856,,426.506,476.198,
44327.511,,426.573,476.259,
44394.167,,426.342,476.184,
44460.829,,426.340,476.158,
44527.484,,426.383,476.269,
44594.141,,426.348,476.233,
44660.796,,426.242,476.057,
44727.457,,426.252,476.138,
44794.116,,426.313,476.042,
44860.772,,426.136,475.758,
44927.433,,426.176,475.842,
44994.088,,426.123,476.120,
45060.745,,426.080,475.731,
45127.402,,426.154,475.851,
45194.058,,425.978,475.976,
45260.717,,426.183,475.810,
45327.373,,425.976,475.613,
45394.034,,425.780,475.599,
45460.688,,426.087,475.635,
45527.345,,425.905,475.575,
45594.004,,425.887,475.848,
45660.665,,425.844,475.940,
45727.323,,425.850,475.602,
45793.981,,425.764,475.628,
45860.636,,425.742,475.423,
45927.295,,425.535,475.533,
45993.951,,425.612,475.506,
46060.606,,425.613,475.377,
46127.263,,425.561,475.348,
46193.923,,425.715,475.349,
46260.584,,425.634,475.284,
46327.240,,425.624,475.458,
46393.898,,425.428,475.325,
46460.555,,425.506,475.189,
46527.212,,425.289,475.215,
46593.872,,425.390,475.336,
46660.527,,425.320,475.236,
46727.182,,425.270,475.042,
46793.841,,425.278,474.990,
46860.496,,425.167,475.262,
46927.155,,425.227,475.026,
46993.815,,425.130,475.163,
47060.473,,425.266,475.009,
47127.127,,425.063,474.892,
47193.789,,425.299,474.889,
47260.444,,425.000,474.931,
47327.105,,425.020,475.001,
47393.762,,425.053,474.903,
47460.416,,424.889,475.051,
47527.076,,424.997,474.931,
47593.732,,424.957,474.785,
47660.393,,424.858,474.673,
47727.047,,424.810,474.607,
47793.704,,424.648,474.617,
47860.365,,424.686,474.767,
47927.022,,424.770,474.666,
47993.679,,424.667,474.623,
48060.338,,424.720,474.584,
48126.991,,424.766,474.640,
48193.651,,424.963,474.703,
48260.307,,424.801,474.418,
48326.965,,424.541,474.459,
48393.621,,424.604,474.341,
