TimeStamp,Lights,Channel1
0.000,410,846.694
33.334,470,934.648
66.670,410,840.849
100.003,470,924.133
133.336,410,835.528
166.667,470,915.269
199.998,410,833.336
233.335,470,913.122
266.670,410,826.761
299.999,470,898.223
333.336,410,816.703
366.666,470,874.397
400.000,410,801.627
433.336,470,853.003
466.668,410,791.838
500.004,470,836.399
533.336,410,784.932
566.669,470,836.226
600.004,410,787.575
633.334,470,836.348
666.669,410,788.412
700.001,470,843.534
733.331,410,787.673
766.668,470,835.085
799.999,410,786.313
833.334,470,831.145
866.665,410,784.410
899.998,470,832.172
933.336,410,794.166
966.665,470,848.654
1000.001,410,801.518
1033.335,470,864.694
1066.667,410,803.195
1099.999,470,848.540
1133.332,410,789.815
1166.667,470,835.261
1200.001,410,789.534
1233.331,470,831.609
1266.669,410,783.150
1300.004,470,821.162
1333.336,410,777.663
1366.668,470,817.319
1400.002,410,772.260
1433.333,470,813.192
1466.670,410,773.794
1500.001,470,817.913
1533.336,410,777.255
1566.669,470,814.495
1600.002,410,775.106
1633.331,470,812.900
1666.668,410,778.195
1700.003,470,814.941
1733.334,410,774.705
1766.668,470,807.343
1799.998,410,771.513
1833.335,470,809.745
1866.666,410,770.516
1900.003,470,814.975
1933.334,410,768.068
1966.671,470,812.234
2000.002,410,768.794
2033.333,470,811.542
2066.670,410,768.558
2099.999,470,808.500
2133.332,410,768.969
2166.669,470,807.716
2200.003,410,768.722
2233.337,470,805.792
2266.670,410,769.170
2299.998,470,804.050
2333.332,410,767.955
2366.668,470,801.628
2400.004,410,768.049
2433.333,470,802.725
2466.665,410,765.505
2500.000,470,802.553
2533.337,410,767.092
2566.668,470,803.164
2600.004,410,765.023
2633.332,470,805.626
2666.666,410,765.682
2700.004,470,802.503
2733.337,410,763.578
2766.666,470,803.898
2800.002,410,765.052
2833.337,470,805.068
2866.670,410,766.752
2899.999,470,805.633
2933.331,410,768.364
2966.670,470,804.874
3000.001,410,773.404
3033.333,470,815.155
3066.671,410,781.195
3100.003,470,817.942
3133.333,410,788.010
3166.668,470,825.631
3200.001,410,795.157
3233.336,470,827.666
3266.666,410,801.275
3300.000,470,833.971
3333.332,410,801.923
3366.667,470,836.617
3400.004,410,801.236
3433.336,470,835.720
3466.666,410,799.220
3499.997,470,833.751
3533.333,410,789.491
3566.666,470,823.678
3600.002,410,783.374
3633.336,470,825.576
3666.664,410,782.915
3699.998,470,825.486
3733.336,410,782.614
3766.666,470,827.781
3799.998,410,784.559
3833.331,470,834.870
3866.669,410,788.875
3899.998,470,832.732
3933.335,410,785.830
3966.666,470,827.954
4000.000,410,785.144
4033.331,470,823.464
4066.670,410,784.247
4100.001,470,826.958
4133.332,410,788.423
4166.667,470,831.285
4200.004,410,789.581
4233.331,470,831.549
4266.669,410,789.889
4299.998,470,829.780
4333.332,410,790.622
4366.664,470,832.886
4399.998,410,795.271
4433.331,470,835.884
4466.669,410,793.635
4500.001,470,838.360
4533.332,410,790.130
4566.666,470,844.268
4600.004,410,790.104
4633.337,470,843.431
4666.669,410,787.612
4699.999,470,837.961
4733.335,410,786.716
4766.667,470,846.945
4800.002,410,785.749
4833.337,470,854.911
4866.667,410,789.507
4899.999,470,856.227
4933.335,410,788.849
4966.664,470,853.236
5000.003,410,789.808
5033.337,470,848.967
5066.665,410,787.683
5100.001,470,843.990
5133.333,410,788.877
5166.666,470,842.201
5200.003,410,789.627
5233.332,470,840.048
5266.664,410,790.166
5300.001,470,834.987
5333.333,410,787.938
5366.670,470,832.403
5400.002,410,790.527
5433.336,470,829.826
5466.665,410,790.513
5500.002,470,828.767
5533.337,410,793.572
5566.665,470,828.385
5600.003,410,791.154
5633.332,470,821.392
5666.669,410,784.162
5700.002,470,809.362
5733.334,410,779.250
5766.665,470,807.863
5799.999,410,778.543
5833.331,470,803.787
5866.666,410,779.317
5900.003,470,806.938
5933.338,410,783.024
5966.670,470,810.316
6000.002,410,780.223
6033.334,470,807.115
6066.670,410,777.741
6100.004,470,804.288
6133.331,410,772.621
6166.668,470,794.278
6200.000,410,767.805
6233.332,470,788.509
6266.666,410,766.836
6300.001,470,782.130
6333.334,410,764.636
6366.667,470,779.713
6399.999,410,761.399
6433.336,470,774.538
6466.670,410,754.752
6500.003,470,770.260
6533.337,410,754.068
6566.669,470,771.483
6600.000,410,754.735
6633.332,470,769.726
6666.665,410,752.304
6699.999,470,770.890
6733.332,410,744.344
6766.668,470,773.972
6799.998,410,742.678
6833.334,470,769.880
6866.667,410,739.208
6899.998,470,763.925
6933.334,410,733.835
6966.670,470,759.483
7000.000,410,735.838
7033.332,470,758.398
7066.668,410,733.314
7100.000,470,755.265
7133.335,410,734.705
7166.665,470,755.283
7200.002,410,742.650
7233.335,470,762.551
7266.666,410,756.275
7299.998,470,772.995
7333.332,410,773.096
7366.668,470,785.024
7400.002,410,782.435
7433.334,470,789.456
7466.668,410,790.956
7500.000,470,787.046
7533.336,410,783.596
7566.671,470,790.663
7600.003,410,787.772
7633.333,470,790.577
7666.666,410,792.695
7700.000,470,795.250
7733.331,410,790.865
7766.668,470,796.522
7800.002,410,793.180
7833.336,470,805.241
7866.665,410,792.000
7899.997,470,808.758
7933.336,410,787.385
7966.665,470,805.770
8000.000,410,782.051
8033.331,470,806.952
8066.670,410,782.520
8100.004,470,806.993
8133.332,410,780.619
8166.668,470,802.729
8199.999,410,781.648
8233.332,470,803.998
8266.667,410,783.320
8300.001,470,802.543
8333.331,410,783.282
8366.664,470,813.182
8400.002,410,784.267
8433.337,470,821.055
8466.664,410,785.308
8499.997,470,825.986
8533.332,410,786.182
8566.665,470,832.910
8600.004,410,788.033
8633.336,470,839.284
8666.670,410,790.448
8699.998,470,837.147
8733.332,410,787.713
8766.669,470,831.961
8799.999,410,787.365
8833.331,470,827.046
8866.665,410,786.367
8900.004,470,826.563
8933.335,410,788.885
8966.666,470,827.992
8999.999,410,788.015
9033.334,470,826.649
9066.670,410,788.505
9100.003,470,827.209
9133.334,410,788.576
9166.666,470,826.580
9199.998,410,787.283
9233.338,470,826.197
9266.671,410,788.247
9300.003,470,828.037
9333.336,410,787.904
9366.666,470,837.645
9399.999,410,788.767
9433.331,470,834.069
9466.667,410,785.383
9500.004,470,828.095
9533.337,410,785.876
9566.670,470,826.213
9600.001,410,786.546
9633.337,470,822.907
9666.665,410,785.967
9699.997,470,820.680
9733.334,410,785.628
9766.670,470,815.710
9799.999,410,783.797
9833.333,470,813.563
9866.666,410,784.794
9900.001,470,812.370
9933.332,410,784.531
9966.668,470,810.593
10000.000,410,783.295
10033.334,470,812.864
10066.668,410,783.694
10099.999,470,811.578
10133.335,410,782.602
10166.668,470,809.300
10199.999,410,783.095
10233.336,470,808.797
10266.667,410,781.499
10300.002,470,806.089
10333.333,410,778.767
10366.669,470,802.451
10400.001,410,777.713
10433.334,470,798.834
10466.670,410,776.037
10499.999,470,799.613
10533.336,410,775.340
10566.667,470,802.540
10600.000,410,773.506
10633.331,470,802.103
10666.669,410,769.386
10699.998,470,802.289
10733.333,410,769.685
10766.665,470,804.012
10800.002,410,771.142
10833.334,470,807.169
10866.668,410,774.843
10899.999,470,806.421
10933.331,410,774.093
10966.665,470,803.256
10999.998,410,780.722
11033.336,470,812.219
11066.667,410,787.072
11100.003,470,817.745
11133.335,410,791.732
11166.668,470,817.073
11200.001,410,790.324
11233.335,470,816.218
11266.665,410,792.989
11299.999,470,816.237
11333.334,410,793.351
11366.669,470,813.603
11400.001,410,793.859
11433.335,470,812.315
11466.664,410,792.853
11499.999,470,808.730
11533.332,410,793.605
11566.670,470,807.012
11600.001,410,793.530
11633.332,470,804.790
11666.669,410,791.092
11700.003,470,802.429
11733.331,410,790.093
11766.671,470,799.956
11800.001,410,789.410
11833.337,470,799.588
11866.669,410,788.961
11900.002,470,799.538
11933.331,410,787.380
11966.664,470,798.271
12000.003,410,787.144
12033.338,470,802.368
12066.666,410,787.144
12100.003,470,805.505
12133.336,410,784.859
12166.669,470,806.331
12200.003,410,785.961
12233.332,470,808.963
12266.666,410,785.189
12299.999,470,814.147
12333.335,410,785.277
12366.665,470,819.111
12400.001,410,785.671
12433.335,470,823.450
12466.666,410,784.443
12500.004,470,825.138
12533.333,410,785.190
12566.665,470,820.543
12599.998,410,784.291
12633.331,470,816.714
12666.667,410,784.988
12699.998,470,815.968
12733.334,410,784.445
12766.666,470,812.553
12800.004,410,783.887
12833.336,470,810.433
12866.666,410,785.873
12899.999,470,807.151
12933.331,410,784.432
12966.668,470,803.466
13000.002,410,785.304
13033.333,470,803.407
13066.669,410,784.695
13100.000,470,798.820
13133.331,410,782.019
13166.666,470,799.887
13200.000,410,787.967
13233.336,470,804.032
13266.668,410,791.106
13300.001,470,811.723
13333.337,410,794.192
13366.665,470,809.266
13399.998,410,786.621
13433.335,470,796.593
13466.666,410,779.480
13500.000,470,790.064
13533.337,410,775.078
13566.665,470,789.097
13599.998,410,774.641
13633.331,470,788.104
13666.669,410,774.672
13700.000,470,790.192
13733.331,410,774.215
13766.665,470,793.905
13799.998,410,781.301
13833.334,470,800.722
13866.668,410,780.850
13899.999,470,800.407
13933.335,410,786.765
13966.670,470,804.472
13999.998,410,781.800
14033.331,470,796.455
14066.666,410,777.027
14100.002,470,793.698
14133.332,410,778.831
14166.665,470,794.204
14200.000,410,779.323
14233.336,470,797.097
14266.669,410,784.295
14300.004,470,800.368
14333.332,410,781.167
14366.668,470,792.879
14400.002,410,772.588
14433.333,470,794.663
14466.669,410,776.512
14499.998,470,811.414
14533.333,410,772.431
14566.668,470,812.441
14600.003,410,765.953
14633.337,470,793.184
14666.666,410,747.879
14700.002,470,774.123
14733.336,410,736.238
14766.667,470,765.088
14800.001,410,733.940
14833.336,470,765.786
14866.666,410,744.619
14899.999,470,771.707
14933.332,410,751.212
14966.665,470,769.772
15000.004,410,744.006
15033.336,470,756.424
15066.671,410,736.271
15099.999,470,753.183
15133.333,410,738.382
15166.665,470,753.602
15199.999,410,737.999
15233.337,470,755.140
15266.671,410,739.358
15300.002,470,754.835
15333.333,410,735.830
15366.666,470,753.157
15400.004,410,733.067
15433.334,470,755.645
15466.666,410,738.844
15500.003,470,764.418
15533.333,410,742.836
15566.670,470,763.575
15600.003,410,752.302
15633.331,470,776.435
15666.669,410,764.109
15700.001,470,783.371
15733.331,410,773.021
15766.667,470,789.516
15800.003,410,776.925
15833.334,470,794.562
15866.665,410,785.833
15899.999,470,802.096
15933.335,410,793.464
15966.669,470,806.529
15999.983,410,790.521
16033.313,470,809.559
16066.630,410,794.577
16099.964,470,808.853
16133.272,410,793.069
16166.610,470,806.146
16199.920,410,794.818
16233.251,470,805.604
16266.569,410,797.122
16299.900,470,807.412
16333.208,410,799.292
16366.549,470,812.406
16399.857,410,801.050
16433.189,470,814.163
16466.499,410,801.451
16499.840,470,816.987
16533.148,410,799.643
16566.483,470,817.955
16599.792,410,795.850
16633.132,470,810.427
16666.439,410,781.516
16699.777,470,796.114
16733.086,410,776.846
16766.417,470,787.856
16799.727,410,772.670
16833.064,470,784.529
16866.375,410,769.253
16899.709,470,778.286
16933.018,410,765.814
16966.355,470,778.217
16999.657,410,766.855
17033.001,470,790.109
17066.307,410,766.801
17099.641,470,799.440
17132.950,410,762.794
17166.285,470,794.388
17199.593,410,757.609
17232.932,470,794.067
17266.236,410,760.417
17299.577,470,801.427
17332.882,410,768.986
17366.218,470,808.786
17399.519,410,772.950
17432.862,470,808.995
17466.168,410,770.951
17499.505,470,810.026
17532.808,410,772.622
17566.151,470,810.798
17599.451,410,772.648
17632.791,470,811.525
17666.092,410,774.237
17699.430,470,812.695
17732.734,410,777.750
17766.075,470,812.913
17799.378,410,774.334
17832.722,470,810.527
17866.022,410,775.887
17899.363,470,810.057
17932.661,410,774.720
17966.005,470,808.257
17999.305,410,775.482
18032.642,470,807.486
18065.943,410,774.423
18099.285,470,804.355
18132.585,410,771.614
18165.931,470,803.830
18199.224,410,771.471
18232.569,470,802.794
18265.866,410,770.313
18299.208,470,804.231
18332.508,410,774.545
18365.854,470,803.212
18399.146,410,771.874
18432.496,470,800.482
18465.787,410,769.201
18499.131,470,794.148
18532.429,410,769.062
18565.776,470,796.704
18599.067,410,768.314
18632.413,470,796.544
18665.710,410,767.040
18699.052,470,800.723
18732.347,410,767.428
18765.693,470,798.155
18798.989,410,766.991
18832.336,470,792.495
18865.629,410,762.907
18898.977,470,791.892
18932.268,410,765.365
18965.617,470,791.651
18998.910,410,765.600
19032.255,470,793.858
19065.544,410,766.796
19098.892,470,802.176
19132.186,410,767.013
19165.534,470,800.605
19198.826,410,773.405
19232.175,470,802.798
19265.460,410,775.563
19298.814,470,806.531
19332.099,410,780.124
19365.448,470,804.369
19398.740,410,778.509
19432.089,470,803.406
19465.378,410,780.308
19498.729,470,800.042
19532.014,410,779.725
19565.367,470,811.864
19598.650,410,780.302
19632.000,470,815.996
19665.288,410,781.249
19698.643,470,815.071
19731.927,410,781.803
19765.279,470,812.333
19798.564,410,782.591
19831.916,470,808.433
19865.199,410,782.974
19898.554,470,806.008
19931.837,410,782.790
19965.190,470,802.546
19998.473,410,782.688
20031.830,470,799.951
20065.109,410,784.183
20098.465,470,800.963
20131.749,410,785.240
20165.101,470,798.355
20198.382,410,784.376
20231.737,470,793.944
20265.019,410,776.430
20298.374,470,792.809
20331.659,410,780.631
20365.010,470,792.071
20398.292,410,779.743
20431.648,470,791.869
20464.927,410,779.318
20498.282,470,793.891
20531.561,410,781.054
20564.920,470,797.056
20598.198,410,780.719
20631.550,470,798.201
20664.835,410,779.193
20698.187,470,795.406
20731.467,410,774.858
20764.825,470,789.858
20798.103,410,772.402
20831.455,470,787.875
20864.739,410,771.006
20898.094,470,782.231
20931.372,410,770.410
20964.731,470,784.617
20998.008,410,770.119
21031.360,470,781.446
21064.639,410,768.501
21097.994,470,782.281
21131.276,410,769.540
21164.629,470,785.575
21197.909,410,774.894
21231.264,470,788.341
21264.538,410,774.938
21297.897,470,792.379
21331.171,410,774.886
21364.534,470,800.027
21397.805,410,774.331
21431.168,470,798.240
21464.436,410,775.267
21497.797,470,797.181
21531.072,410,775.936
21564.435,470,798.120
21597.708,410,774.939
21631.069,470,802.805
21664.335,410,775.217
21697.699,470,803.911
21730.972,410,773.677
21764.332,470,803.668
21797.599,410,774.911
21830.963,470,806.177
21864.231,410,774.253
21897.594,470,809.669
21930.866,410,774.193
21964.232,470,802.542
21997.494,410,775.554
22030.862,470,799.648
22064.128,410,775.748
22097.493,470,799.193
22130.757,410,775.952
22164.122,470,796.547
22197.390,410,774.193
22230.754,470,793.479
22264.018,410,774.892
22297.389,470,798.156
22330.654,410,776.339
22364.022,470,797.661
22397.286,410,775.594
22430.648,470,797.131
22463.915,410,776.749
22497.285,470,798.491
22530.542,410,775.589
22563.913,470,811.213
22597.175,410,776.587
22630.544,470,814.282
22663.805,410,776.413
22697.176,470,811.809
22730.434,410,774.712
22763.801,470,810.640
22797.064,410,775.523
22830.434,470,808.870
22863.696,410,774.911
22897.065,470,808.350
22930.321,410,775.775
22963.696,470,811.138
22996.952,410,775.720
23030.322,470,810.894
23063.582,410,774.588
23096.950,470,813.535
23130.211,410,776.226
23163.582,470,814.096
23196.841,410,776.037
23230.212,470,811.199
23263.469,410,776.392
23296.843,470,809.724
23330.094,410,775.850
23363.469,470,806.417
23396.724,410,775.129
23430.098,470,805.945
23463.353,410,776.281
23496.729,470,803.967
23529.980,410,776.054
23563.355,470,799.592
23596.610,410,775.479
23629.985,470,798.210
23663.237,410,776.683
23696.607,470,797.140
23729.861,410,775.523
23763.237,470,793.667
23796.491,410,776.390
23829.866,470,793.172
23863.113,410,776.586
23896.494,470,792.844
23929.745,410,774.324
23963.118,470,794.480
23996.397,410,775.418
24029.776,470,794.040
24063.056,410,775.688
24096.438,470,791.701
24129.720,410,775.239
24163.094,470,792.264
24196.376,410,777.289
24229.755,470,790.623
24263.034,410,775.837
24296.409,470,789.092
24329.693,410,776.512
24363.070,470,790.051
24396.354,410,776.062
24429.726,470,788.552
24463.007,410,775.234
24496.384,470,788.169
24529.672,410,776.420
24563.046,470,787.091
24596.325,410,775.654
24629.702,470,786.625
24662.987,410,774.834
24696.360,470,784.363
24729.649,410,773.133
24763.018,470,785.471
24796.303,410,775.759
24829.678,470,785.085
24862.962,410,777.471
24896.333,470,784.393
24929.624,410,778.846
24962.993,470,788.418
24996.281,410,781.288
25029.648,470,789.273
25062.936,410,778.797
25096.304,470,782.498
25129.595,410,775.502
25162.962,470,779.630
25196.255,410,772.610
25229.621,470,776.638
25262.915,410,772.145
25296.281,470,775.676
25329.572,410,772.049
25362.939,470,773.261
25396.234,410,771.019
25429.595,470,773.315
25462.892,410,769.689
25496.257,470,772.161
25529.554,410,768.030
25562.917,470,773.101
25596.212,410,768.480
25629.573,470,770.371
25662.870,410,765.689
25696.228,470,770.268
25729.527,410,765.603
25762.892,470,768.343
25796.186,410,764.238
25829.547,470,769.756
25862.843,410,765.269
25896.201,470,766.435
25929.504,410,760.993
25962.865,470,762.503
25996.165,410,754.371
26029.524,470,754.002
26062.822,410,746.683
26096.181,470,751.018
26129.483,410,745.961
26162.839,470,747.153
26196.139,410,742.384
26229.495,470,749.404
26262.796,410,751.675
26296.151,470,755.526
26329.456,410,749.186
26362.815,470,754.147
26396.115,410,748.723
26429.468,470,754.552
26462.775,410,749.545
26496.125,470,755.911
26529.434,410,748.206
26562.785,470,752.927
26596.092,410,744.408
26629.444,470,748.641
26662.752,410,740.759
26696.104,470,746.399
26729.411,410,742.225
26762.760,470,748.193
26796.069,410,743.685
26829.418,470,746.124
26862.730,410,742.451
26896.079,470,745.350
26929.391,410,744.221
26962.738,470,744.416
26996.048,410,742.871
27029.394,470,742.901
27062.707,410,742.964
27096.055,470,745.214
27129.364,410,745.377
27162.713,470,744.279
27196.022,410,744.097
27229.366,470,745.350
27262.687,410,746.105
27296.024,470,746.141
27329.344,410,746.001
27362.689,470,745.350
27396.002,410,745.219
27429.344,470,747.448
27462.659,410,745.001
27496.000,470,751.047
27529.319,410,742.784
27562.659,470,748.975
27595.981,410,734.717
27629.318,470,741.651
27662.640,410,730.737
27695.978,470,739.380
27729.296,410,722.643
27762.633,470,734.055
27795.956,410,721.441
27829.292,470,735.557
27862.616,410,724.172
27895.950,470,739.715
27929.276,410,724.228
27962.613,470,741.284
27995.933,410,726.570
28029.270,470,742.721
28062.593,410,730.000
28095.929,470,746.728
28129.251,410,745.921
28162.586,470,763.452
28195.913,410,758.742
28229.243,470,768.929
28262.575,410,775.120
28295.900,470,789.073
28329.234,410,783.422
28362.562,470,795.779
28395.892,410,786.824
28429.218,470,805.013
28462.551,410,788.245
28495.877,470,811.981
28529.210,410,792.736
28562.538,470,816.983
28595.866,410,791.792
28629.195,470,814.225
28662.528,410,789.839
28695.857,470,817.828
28729.184,410,791.386
28762.511,470,820.853
28795.847,410,789.897
28829.168,470,819.872
28862.509,410,787.708
28895.831,470,821.507
28929.162,410,787.173
28962.487,470,821.295
28995.826,410,784.869
29029.147,470,820.625
29062.486,410,785.849
29095.807,470,816.899
29129.144,410,783.427
29162.465,470,824.119
29195.804,410,783.836
29229.122,470,826.060
29262.460,410,781.508
29295.781,470,822.696
29329.124,410,773.422
29362.441,470,811.775
29395.778,410,766.815
29429.098,470,795.048
29462.443,410,753.837
29495.758,470,784.958
29529.102,410,745.880
29562.413,470,784.815
29595.763,410,757.237
29629.071,470,804.098
29662.421,410,767.182
29695.732,470,818.436
29729.077,410,777.949
29762.391,470,810.786
29795.735,410,765.490
29829.049,470,793.024
29862.395,410,764.345
29895.705,470,801.651
29929.055,410,774.044
29962.368,470,812.167
29995.714,410,781.721
30029.027,470,814.104
30062.375,410,783.334
30095.685,470,816.391
30129.035,410,785.853
30162.339,470,810.549
30195.692,410,773.769
30228.998,470,791.245
30262.353,410,764.119
30295.655,470,774.297
30329.012,410,750.316
30362.313,470,762.514
30395.671,410,747.234
30428.973,470,759.614
30462.337,410,744.812
30495.631,470,762.397
30528.990,410,753.060
30562.290,470,774.155
30595.652,410,751.365
30628.953,470,793.918
30662.313,410,743.208
30695.611,470,810.807
30728.971,410,750.733
30762.269,470,820.700
30795.629,410,749.767
30828.927,470,823.992
30862.289,410,749.332
30895.587,470,813.910
30928.953,410,739.646
30962.247,470,795.897
30995.609,410,735.642
31028.902,470,789.018
31062.267,410,733.441
31095.560,470,790.235
31128.929,410,740.667
31162.224,470,804.123
31195.592,410,771.268
31228.876,470,834.820
31262.252,410,771.955
31295.541,470,837.042
31328.911,410,778.385
31362.195,470,830.760
31395.566,410,781.091
31428.856,470,835.029
31462.230,410,779.546
31495.513,470,825.084
31528.892,410,780.736
31562.173,470,824.502
31595.551,410,781.464
31628.834,470,828.200
31662.206,410,782.975
31695.489,470,823.383
31728.871,410,780.446
31762.151,470,831.059
31795.527,410,780.136
31828.809,470,831.584
31862.189,410,782.084
31895.466,470,829.455
31928.846,410,781.303
31962.127,470,830.777
31995.509,410,781.398
32028.787,470,830.522
32062.166,410,782.654
32095.443,470,833.792
32128.824,410,781.426
32162.105,470,839.072
32195.479,410,781.403
32228.761,470,835.458
32262.135,410,778.980
32295.417,470,833.221
32328.798,410,775.595
32362.077,470,828.592
32395.458,410,776.975
32428.735,470,826.075
32462.111,410,776.387
32495.398,470,822.548
32528.769,410,775.644
32562.053,470,820.052
32595.433,410,775.333
32628.713,470,816.501
32662.088,410,768.359
32695.372,470,806.476
32728.750,410,765.569
32762.032,470,796.403
32795.406,410,759.848
32828.695,470,788.522
32862.062,410,757.757
32895.354,470,784.894
32928.721,410,759.008
32962.013,470,788.192
32995.377,410,761.132
33028.672,470,787.024
33062.037,410,757.833
33095.331,470,782.777
33128.700,410,755.872
33161.990,470,779.490
33195.352,410,753.488
33228.647,470,773.419
33262.013,410,751.927
33295.308,470,773.194
33328.671,410,752.330
33361.962,470,783.362
33395.332,410,761.267
33428.622,470,808.488
33461.987,410,759.540
33495.280,470,801.092
33528.648,410,753.978
33561.944,470,795.750
33595.307,410,752.862
33628.598,470,792.803
33661.965,410,754.878
33695.262,470,799.860
33728.623,410,761.980
33761.922,470,809.989
33795.277,410,761.919
33828.581,470,803.369
33861.937,410,762.414
33895.239,470,802.529
33928.598,410,761.510
33961.895,470,807.756
33995.253,410,762.499
34028.556,470,805.149
34061.916,410,763.098
34095.216,470,803.132
34128.572,410,762.724
34161.872,470,806.891
34195.232,410,765.880
34228.532,470,806.212
34261.890,410,768.574
34295.195,470,807.417
34328.549,410,769.663
34361.850,470,801.119
34395.201,410,768.078
34428.511,470,793.023
34461.863,410,762.779
34495.174,470,784.246
34528.525,410,756.226
34561.828,470,774.463
34595.183,410,751.018
34628.491,470,768.467
34661.841,410,748.389
34695.149,470,764.427
34728.499,410,745.948
34761.809,470,762.117
34795.156,410,743.654
34828.470,470,760.080
34861.814,410,744.945
34895.129,470,759.505
34928.471,410,744.604
34961.784,470,764.481
34995.133,410,749.519
35028.446,470,769.325
35061.792,410,750.102
35095.103,470,771.889
35128.445,410,755.308
35161.760,470,773.937
35195.107,410,759.037
35228.423,470,775.351
35261.765,410,761.160
35295.083,470,773.601
35328.426,410,759.522
35361.741,470,772.722
35395.079,410,759.037
35428.403,470,769.568
35461.740,410,757.771
35495.064,470,765.945
35528.396,410,755.211
35561.721,470,768.345
35595.054,410,760.941
35628.378,470,772.113
35661.712,410,762.802
35695.041,470,776.333
35728.374,410,763.603
35761.699,470,775.654
35795.031,410,763.691
35828.357,470,777.081
35861.689,410,762.340
35895.016,470,777.301
35928.348,410,758.034
35961.674,470,772.270
35995.010,410,760.895
36028.339,470,775.318
36061.662,410,763.616
36094.998,470,777.379
36128.324,410,766.208
36161.656,470,780.270
36194.983,410,768.247
36228.313,470,778.868
36261.641,410,768.974
36294.970,470,778.181
36328.302,410,770.732
36361.635,470,778.829
36394.959,410,770.912
36428.292,470,781.172
36461.619,410,772.834
36494.954,470,779.134
36528.277,410,772.314
36561.609,470,775.461
36594.931,410,772.837
36628.272,470,771.197
36661.593,410,767.379
36694.933,470,771.626
36728.247,410,768.368
36761.593,470,779.027
36794.907,410,777.706
36828.252,470,788.999
36861.570,410,781.106
36894.909,470,789.878
36928.225,410,779.588
36961.568,470,790.700
36994.885,410,780.159
37028.228,470,807.763
37061.543,410,780.454
37094.890,470,817.730
37128.201,410,782.279
37161.549,470,820.024
37194.857,410,782.365
37228.210,470,815.752
37261.518,410,781.054
37294.867,470,811.777
37328.177,410,781.612
37361.525,470,807.807
37394.834,410,784.754
37428.185,470,807.325
37461.493,410,786.148
37494.845,470,805.152
37528.151,410,784.411
37561.508,470,799.558
37594.813,410,780.833
37628.164,470,796.808
37661.473,410,779.447
37694.823,470,792.939
37728.130,410,778.306
37761.485,470,787.051
37794.788,410,772.409
37828.140,470,777.244
37861.446,410,765.942
37894.799,470,767.222
37928.107,410,758.672
37961.459,470,760.882
37994.766,410,752.841
38028.121,470,753.794
38061.424,410,745.751
38094.783,470,753.653
38128.079,410,743.893
38161.444,470,749.556
38194.736,410,740.282
38228.104,470,744.581
38261.395,410,727.779
38294.762,470,737.866
38328.054,410,721.510
38361.421,470,739.842
38394.714,410,717.031
38428.079,470,738.257
38461.370,410,716.338
38494.738,470,736.743
38528.032,410,713.131
38561.401,470,734.891
38594.692,410,709.698
38628.055,470,735.535
38661.347,410,707.365
38694.715,470,742.135
38728.010,410,706.416
38761.379,470,741.581
38794.667,410,706.078
38828.040,470,739.039
38861.323,410,704.937
38894.696,470,737.513
38927.985,410,703.712
38961.356,470,738.872
38994.642,410,703.549
39028.020,470,743.032
39061.299,410,708.384
39094.676,470,746.731
39127.957,410,708.955
39161.336,470,753.443
39194.618,410,712.626
39227.993,470,767.296
39261.280,410,714.013
39294.658,470,779.596
39327.933,410,715.036
39361.313,470,776.843
39394.592,410,707.774
39427.976,470,771.983
39461.254,410,704.214
39494.637,470,766.216
39527.910,410,703.736
39561.295,470,759.830
39594.573,410,703.588
39627.957,470,753.628
39661.231,410,702.631
39694.614,470,749.572
39727.885,410,701.288
39761.278,470,745.244
39794.547,410,702.421
39827.938,470,742.125
39861.202,410,702.802
39894.596,470,740.331
39927.860,410,703.253
39961.252,470,737.674
39994.523,410,702.109
40027.910,470,736.319
40061.182,410,701.524
40094.566,470,733.841
40127.838,410,699.601
40161.226,470,732.393
40194.499,410,695.545
40227.882,470,732.741
40261.154,410,694.449
40294.537,470,749.614
40327.809,410,693.585
40361.193,470,784.214
40394.473,410,692.258
40427.856,470,798.051
40461.127,410,691.604
40494.508,470,804.904
40527.786,410,691.481
40561.170,470,797.940
40594.444,410,691.345
40627.822,470,793.531
40661.101,410,691.709
40694.483,470,787.169
40727.759,410,693.061
40761.136,470,781.826
40794.421,410,692.673
40827.793,470,773.652
40861.077,410,691.849
40894.451,470,768.096
40927.736,410,691.229
40961.110,470,762.522
40994.395,410,691.616
41027.764,470,759.277
41061.054,410,691.586
41094.426,470,757.206
41127.709,410,691.277
41161.078,470,760.320
41194.370,410,690.686
41227.739,470,756.112
41261.027,410,691.233
41294.396,470,753.970
41327.685,410,691.967
41361.050,470,752.064
41394.343,410,692.778
41427.711,470,748.281
41461.000,410,692.823
41494.366,470,745.312
41527.659,410,693.001
41561.019,470,741.386
41594.316,410,697.312
41627.676,470,739.935
41660.978,410,701.317
41694.337,470,739.134
41727.637,410,703.320
41760.992,470,737.759
41794.294,410,705.216
41827.647,470,736.193
41860.951,410,707.681
41894.309,470,741.549
41927.611,410,706.932
41960.963,470,748.889
41994.265,410,699.799
42027.619,470,755.017
42060.925,410,698.284
42094.275,470,755.242
42127.583,410,696.836
42160.933,470,755.850
42194.240,410,697.359
42227.591,470,754.392
42260.897,410,698.274
42294.246,470,753.731
42327.559,410,700.846
42360.904,470,750.740
42394.215,410,702.396
42427.562,470,747.366
42460.872,410,702.437
42494.218,470,743.103
42527.534,410,702.427
42560.878,470,739.593
42594.191,410,703.975
42627.530,470,736.215
42660.851,410,702.803
42694.191,470,734.996
42727.507,410,699.783
42760.844,470,732.895
42794.169,410,698.123
42827.506,470,731.288
42860.827,410,699.754
42894.158,470,728.246
42927.483,410,702.680
42960.819,470,730.322
42994.143,410,710.666
43027.476,470,732.291
43060.799,410,713.229
43094.128,470,733.853
43127.461,410,713.429
43160.786,470,734.338
43194.117,410,710.137
43227.442,470,733.453
43260.773,410,711.087
43294.099,470,734.048
43327.431,410,712.089
43360.756,470,732.502
43394.090,410,712.297
43427.414,470,734.666
43460.747,410,713.234
43494.071,470,737.304
43527.411,410,712.985
43560.732,470,741.136
43594.069,410,714.191
43627.387,470,741.446
43660.725,410,713.593
43694.045,470,742.478
43727.386,410,714.597
43760.697,470,744.391
43794.042,410,714.762
43827.359,470,742.026
43860.700,410,712.226
43894.015,470,741.994
43927.354,410,713.649
43960.672,470,742.087
43994.018,410,713.102
44027.328,470,740.037
44060.673,410,712.500
44093.983,470,739.788
44127.333,410,713.358
44160.644,470,737.862
44193.993,410,712.372
44227.301,470,734.924
44260.652,410,713.414
44293.956,470,733.685
44327.306,410,712.571
44360.608,470,734.747
44393.968,410,711.792
44427.272,470,735.610
44460.624,410,712.776
44493.924,470,734.553
44527.285,410,711.924
44560.581,470,731.817
44593.943,410,712.039
44627.242,470,730.099
44660.597,410,711.814
44693.896,470,727.014
44727.257,410,703.545
44760.550,470,721.238
44793.914,410,699.874
44827.212,470,719.784
44860.572,410,699.965
44893.866,470,717.874
44927.231,410,699.788
44960.523,470,719.805
44993.892,410,700.904
45027.183,470,720.219
45060.548,410,702.807
45093.840,470,721.690
45127.209,410,708.329
45160.496,470,726.497
45193.862,410,712.102
45227.151,470,727.070
45260.524,410,723.960
45293.806,470,739.269
45327.181,410,730.862
45360.462,470,734.046
45393.839,410,722.387
45427.123,470,737.596
45460.498,410,729.291
45493.781,470,755.594
45527.155,410,747.453
45560.436,470,766.673
45593.818,410,757.823
45627.092,470,778.607
45660.472,410,759.835
45693.745,470,759.819
45727.131,410,736.348
45760.402,470,741.263
45793.790,410,728.800
45827.059,470,749.918
45860.449,410,751.214
45893.720,470,762.637
45927.108,410,745.384
45960.374,470,745.932
45993.764,410,727.944
46027.034,470,742.761
46060.427,410,729.420
46093.686,470,757.378
46127.084,410,740.054
46160.348,470,774.733
46193.741,410,756.762
46227.001,470,783.574
46260.398,410,764.458
46293.657,470,791.048
46327.055,410,766.370
46360.316,470,796.483
46393.716,410,768.836
46426.974,470,800.949
46460.374,410,769.317
46493.632,470,801.019
46527.035,410,767.022
46560.284,470,794.175
46593.690,410,761.225
46626.945,470,781.600
46660.350,410,747.783
46693.598,470,770.683
46727.005,410,736.948
46760.259,470,759.415
46793.667,410,728.934
46826.910,470,749.910
46860.325,410,725.858
46893.574,470,747.463
46926.984,410,721.964
46960.228,470,742.405
46993.639,410,719.210
47026.885,470,744.109
47060.300,410,722.703
47093.542,470,741.540
47126.961,410,718.533
47160.200,470,740.403
47193.614,410,719.226
47226.852,470,742.947
47260.278,410,720.887
47293.510,470,745.344
47326.936,410,719.721
47360.170,470,748.212
47393.591,410,721.552
47426.825,470,746.898
47460.251,410,719.824
47493.482,470,748.044
47526.908,410,719.716
47560.137,470,745.043
47593.567,410,716.459
47626.795,470,743.189
47660.223,410,719.532
47693.453,470,747.237
47726.885,410,721.832
47760.110,470,745.738
47793.543,410,724.086
47826.765,470,749.948
47860.204,410,724.375
47893.421,470,750.254
47926.863,410,723.036
47960.081,470,753.334
47993.515,410,726.565
48026.736,470,762.652
48060.177,410,731.878
48093.392,470,764.192
48126.834,410,729.284
48160.054,470,762.983
48193.491,410,733.404
48226.712,470,764.108
48260.154,410,730.473
48293.368,470,761.104
48326.810,410,727.700
48360.029,470,754.986
48393.470,410,721.484
48426.684,470,753.943
48460.126,410,724.409
48493.346,470,766.731
48526.792,410,740.016
48560.001,470,776.767
48593.448,410,751.667
48626.663,470,787.017
48660.107,410,755.086
48693.320,470,797.826
48726.764,410,755.843
48759.974,470,805.862
48793.422,410,760.215
48826.634,470,807.049
48860.082,410,759.000
48893.292,470,803.470
48926.744,410,756.718
48959.952,470,799.532
48993.401,410,755.421
49026.610,470,783.752
49060.061,410,743.498
49093.272,470,773.201
49126.719,410,745.383
49159.925,470,778.146
49193.378,410,749.142
49226.582,470,779.606
49260.033,410,750.588
49293.242,470,776.796
49326.695,410,752.380
49359.898,470,778.214
49393.351,410,752.496
49426.557,470,772.814
49460.013,410,749.436
49493.219,470,758.319
49526.669,410,734.405
49559.873,470,744.998
49593.330,410,721.836
49626.532,470,745.265
49659.989,410,734.967
49693.190,470,747.295
49726.646,410,742.932
49759.852,470,773.873
49793.288,410,755.756
49826.509,470,784.198
49859.963,410,758.840
49893.169,470,781.194
49926.623,410,751.377
49959.828,470,779.095
49993.280,410,754.685
50026.484,470,775.782
50059.941,410,756.944
50093.142,470,773.938
50126.599,410,755.085
50159.801,470,775.943
50193.256,410,754.936
50226.457,470,769.103
50259.921,410,753.271
50293.117,470,770.418
50326.578,410,751.607
50359.779,470,760.561
50393.234,410,749.767
50426.434,470,758.938
50459.892,410,744.742
50493.092,470,752.880
50526.553,410,736.766
50559.752,470,741.457
50593.213,410,733.091
50626.412,470,742.837
50659.871,410,732.833
50693.069,470,734.920
50726.530,410,727.002
50759.726,470,735.662
50793.186,410,718.118
50826.381,470,732.208
50859.844,410,715.080
50893.042,470,732.333
50926.507,410,715.191
50959.697,470,729.079
50993.164,410,711.374
51026.355,470,728.636
51059.826,410,713.330
51093.016,470,729.272
51126.485,410,716.565
51159.672,470,728.754
51193.143,410,721.839
51226.334,470,735.655
51259.802,410,730.238
51292.994,470,734.600
51326.462,410,726.901
51359.650,470,733.223
51393.117,410,726.787
51426.308,470,734.271
51459.780,410,728.591
51492.969,470,736.623
51526.433,410,731.428
51559.625,470,735.724
51593.097,410,728.320
51626.280,470,732.127
51659.752,410,715.199
51692.938,470,727.984
51726.414,410,707.637
51759.603,470,721.740
51793.068,410,703.756
51826.255,470,719.594
51859.728,410,701.714
51892.914,470,717.884
51926.388,410,702.262
51959.575,470,717.636
51993.048,410,702.631
52026.235,470,717.031
52059.711,410,705.195
52092.894,470,715.653
52126.364,410,704.932
52159.547,470,716.936
52193.023,410,710.200
52226.209,470,718.175
52259.686,410,712.125
52292.869,470,719.330
52326.345,410,715.344
52359.528,470,720.936
52392.999,410,714.366
52426.185,470,717.336
52459.664,410,711.904
52492.842,470,716.935
52526.320,410,717.963
52559.498,470,721.223
52592.977,410,720.162
52626.158,470,745.163
52659.637,410,738.514
52692.814,470,761.636
52726.297,410,746.184
52759.474,470,770.096
52792.957,410,746.023
52826.136,470,762.448
52859.617,410,745.292
52892.790,470,764.183
52926.274,410,745.497
52959.451,470,758.920
52992.933,410,744.991
53026.112,470,756.170
53059.589,410,743.529
53092.765,470,751.043
53126.254,410,742.116
53159.427,470,747.818
53192.910,410,739.543
53226.085,470,745.985
53259.565,410,734.252
53292.744,470,741.978
53326.230,410,729.795
53359.398,470,735.578
53392.889,410,732.960
53426.058,470,741.137
53459.548,410,722.014
53492.715,470,730.674
53526.206,410,717.160
53559.377,470,727.667
53592.861,410,709.700
53626.031,470,720.051
53659.520,410,705.903
53692.695,470,720.087
53726.180,410,708.977
53759.351,470,719.372
53792.842,410,708.846
53826.007,470,718.026
53859.501,410,709.616
53892.670,470,717.540
53926.161,410,710.891
53959.326,470,718.035
53992.817,410,710.724
54025.982,470,721.216
54059.477,410,711.781
54092.644,470,719.867
54126.137,410,710.187
54159.301,470,718.255
54192.795,410,711.295
54225.960,470,717.508
54259.457,410,711.960
54292.617,470,716.282
54326.116,410,710.202
54359.275,470,717.028
54392.773,410,711.968
54425.932,470,716.931
54459.433,410,711.366
54492.593,470,716.918
54526.087,410,711.832
54559.250,470,718.483
54592.746,410,712.186
54625.908,470,719.915
54659.411,410,710.561
54692.570,470,720.719
54726.070,410,712.449
54759.226,470,720.172
54792.725,410,712.389
54825.887,470,718.147
54859.387,410,711.754
54892.546,470,717.855
54926.046,410,712.126
54959.200,470,717.672
54992.706,410,711.397
55025.857,470,715.789
55059.365,410,712.831
55092.516,470,716.869
55126.022,410,713.235
55159.177,470,715.882
55192.678,410,711.955
55225.835,470,715.047
55259.338,410,713.540
55292.493,470,717.573
55325.995,410,713.262
55359.152,470,718.095
55392.656,410,711.561
55425.809,470,720.226
55459.317,410,713.359
55492.468,470,720.450
55525.977,410,711.722
55559.128,470,720.639
55592.635,410,713.116
55625.786,470,721.128
55659.296,410,712.928
55692.442,470,721.331
55725.956,410,712.196
55759.102,470,726.164
55792.614,410,714.078
55825.759,470,725.768
55859.271,410,713.042
55892.418,470,722.755
55925.930,410,713.256
55959.077,470,722.476
55992.586,410,713.294
56025.738,470,721.224
56059.244,410,712.711
56092.393,470,720.117
56125.903,410,714.652
56159.055,470,718.901
56192.561,410,713.864
56225.715,470,719.002
56259.217,410,713.119
56292.370,470,722.278
56325.877,410,714.131
56359.026,470,721.618
56392.535,410,713.685
56425.688,470,721.292
56459.194,410,714.377
56492.346,470,722.263
56525.852,410,714.493
56559.002,470,722.564
56592.507,410,712.526
56625.662,470,722.458
56659.165,410,714.415
56692.318,470,722.425
56725.824,410,714.479
56758.976,470,723.554
56792.480,410,713.030
56825.635,470,724.856
56859.134,410,714.630
56892.295,470,724.707
56925.792,410,714.333
56958.952,470,723.841
56992.453,410,714.480
57025.611,470,724.654
57059.112,410,714.514
57092.269,470,723.874
57125.768,410,713.356
57158.929,470,723.401
57192.423,410,714.642
57225.590,470,723.010
57259.082,410,714.236
57292.245,470,721.919
57325.740,410,713.471
57358.906,470,721.664
57392.401,410,714.968
57425.565,470,720.850
57459.054,410,714.921
57492.222,470,720.324
57525.711,410,711.756
57558.877,470,717.797
57592.368,410,710.090
57625.540,470,718.382
57659.030,410,713.305
57692.194,470,721.822
57725.689,410,717.819
57758.857,470,728.110
57792.347,410,711.385
57825.512,470,732.767
57859.000,410,698.775
57892.170,470,737.108
57925.657,410,704.573
57958.831,470,746.853
57992.313,410,719.698
58025.491,470,753.770
58058.977,410,725.227
58092.151,470,754.707
58125.633,410,729.662
58158.803,470,753.583
58192.292,410,729.441
58225.467,470,752.437
58258.950,410,734.792
58292.123,470,755.361
58325.601,410,735.407
58358.779,470,750.936
58392.261,410,736.420
58425.440,470,752.242
58458.920,410,735.392
58492.097,470,748.781
58525.575,410,735.202
58558.759,470,746.038
58592.234,410,733.846
58625.414,470,742.633
58658.890,410,729.518
58692.074,470,736.242
58725.553,410,726.654
58758.733,470,737.188
58792.208,410,728.499
58825.392,470,746.763
58858.862,410,745.787
58892.046,470,751.740
58925.520,410,736.019
58958.708,470,737.838
58992.184,410,735.950
59025.368,470,738.382
59058.841,410,736.122
59092.025,470,734.241
59125.495,410,733.138
59158.686,470,731.590
59192.152,410,730.962
59225.343,470,729.489
59258.814,410,726.208
59291.998,470,725.633
59325.467,410,725.065
59358.656,470,722.827
59392.128,410,724.957
59425.316,470,722.285
59458.784,410,725.407
59491.976,470,721.905
59525.441,410,724.108
59558.634,470,720.755
59592.100,410,725.161
59625.295,470,721.273
59658.759,410,724.776
59691.952,470,720.596
59725.416,410,724.032
59758.609,470,722.719
59792.075,410,725.077
59825.269,470,724.180
59858.727,410,724.722
59891.927,470,724.790
59925.384,410,724.842
59958.585,470,726.421
59992.042,410,724.696
60025.245,470,727.706
60058.703,410,723.209
60091.902,470,729.842
60125.359,410,724.660
60158.558,470,731.374
60192.018,410,724.308
60225.222,470,730.121
60258.676,410,723.873
60291.874,470,731.028
60325.329,410,724.903
60358.536,470,730.188
60391.990,410,723.912
60425.196,470,728.830
60458.648,410,724.907
60491.855,470,730.672
60525.306,410,724.922
60558.510,470,731.066
60591.963,410,723.210
60625.171,470,734.402
60658.618,410,724.623
60691.830,470,735.408
60725.276,410,724.804
60758.484,470,734.548
60791.938,410,723.150
60825.148,470,735.049
60858.596,410,724.205
60891.803,470,734.728
60925.252,410,723.793
60958.463,470,733.961
60991.907,410,725.159
61025.120,470,733.484
61058.569,410,725.243
61091.783,470,734.284
61125.224,410,723.454
61158.437,470,738.214
61191.879,410,724.132
61225.100,470,737.605
61258.540,410,720.013
61291.752,470,734.140
61325.199,410,716.344
61358.416,470,737.933
61391.851,410,721.068
61425.074,470,744.572
61458.508,410,718.634
61491.734,470,744.521
61525.172,410,719.802
61558.388,470,744.055
61591.824,410,727.082
61625.045,470,746.697
61658.481,410,731.430
61691.708,470,747.022
61725.140,410,736.454
61758.361,470,748.146
61791.799,410,742.212
61825.020,470,747.901
61858.457,410,743.608
61891.685,470,745.253
61925.111,410,743.600
61958.339,470,744.666
61991.773,410,744.085
62024.996,470,741.394
62058.428,410,744.614
62091.656,470,739.376
62125.090,410,741.702
62158.316,470,742.343
62191.743,410,741.878
62224.974,470,743.981
62258.404,410,742.572
62291.634,470,746.731
62325.061,410,743.439
62358.294,470,751.868
62391.717,410,743.020
62424.951,470,755.596
62458.379,410,743.049
62491.608,470,755.292
62525.029,410,742.100
62558.265,470,754.948
62591.693,410,742.157
62624.925,470,755.308
62658.347,410,741.224
62691.586,470,753.115
62725.005,410,744.275
62758.241,470,755.390
62791.664,410,742.996
62824.900,470,761.141
62858.322,410,744.277
62891.561,470,763.431
62924.981,410,744.386
62958.220,470,766.232
62991.637,410,742.013
63024.876,470,765.307
63058.292,410,746.639
63091.535,470,760.558
63124.948,410,744.919
63158.198,470,761.907
63191.612,410,746.549
63224.851,470,759.486
63258.267,410,744.745
63291.514,470,759.014
63324.923,410,745.348
63358.168,470,768.810
63391.579,410,747.486
63424.832,470,772.416
63458.236,410,744.635
63491.486,470,776.765
63524.899,410,743.319
63558.144,470,776.712
63591.553,410,744.030
63624.805,470,776.412
63658.210,410,745.427
63691.460,470,776.304
63724.866,410,743.445
63758.124,470,771.230
63791.527,410,742.683
63824.782,470,771.037
63858.181,410,744.407
63891.438,470,771.873
63924.841,410,744.964
63958.096,470,769.138
63991.503,410,743.323
64024.754,470,768.207
64058.160,410,743.982
64091.413,470,763.902
64124.816,410,743.268
64158.073,470,761.672
64191.473,410,743.055
64224.731,470,757.826
64258.131,410,743.981
64291.392,470,755.177
64324.792,410,742.190
64358.049,470,752.973
64391.446,410,742.867
64424.709,470,747.760
64458.105,410,743.612
64491.364,470,748.665
64524.768,410,742.486
64558.025,470,754.320
64591.424,410,743.397
64624.683,470,755.504
64658.083,410,741.702
64691.341,470,754.691
64724.737,410,741.165
64758.000,470,753.270
64791.397,410,741.005
64824.659,470,752.191
64858.055,410,741.813
64891.318,470,753.323
64924.713,410,740.817
64957.971,470,753.165
64991.368,410,735.278
65024.635,470,744.143
65058.032,410,725.899
65091.290,470,720.232
65124.687,410,699.247
65157.951,470,708.495
65191.342,410,694.905
65224.605,470,706.758
65258.001,410,692.681
65291.264,470,706.690
65324.661,410,690.867
65357.923,470,709.261
65391.317,410,688.546
65424.583,470,713.843
65457.981,410,687.135
65491.242,470,716.539
65524.637,410,685.594
65557.896,470,717.058
65591.294,410,683.135
65624.556,470,716.711
65657.954,410,682.393
65691.215,470,715.409
65724.613,410,683.879
65757.876,470,717.571
65791.265,410,694.594
65824.536,470,728.649
65857.927,410,708.648
65891.189,470,741.816
65924.582,410,714.830
65957.849,470,746.837
65991.239,410,713.396
66024.508,470,747.560
66057.901,410,713.839
66091.163,470,739.431
66124.560,410,708.493
66157.827,470,734.739
66191.215,410,698.031
66224.481,470,731.649
66257.877,410,698.560
66291.143,470,731.006
66324.530,410,701.623
66357.802,470,732.970
66391.193,410,709.408
66424.458,470,730.985
66457.852,410,702.237
66491.116,470,731.625
66524.509,410,703.491
66557.777,470,739.124
66591.168,410,717.868
66624.436,470,749.954
66657.822,410,725.535
66691.096,470,754.407
66724.484,410,737.320
66757.754,470,755.228
66791.137,410,736.039
66824.407,470,754.343
66857.800,410,739.214
66891.066,470,751.051
66924.452,410,738.737
66957.724,470,752.514
66991.115,410,741.379
67024.382,470,748.952
67057.771,410,734.594
67091.042,470,734.915
67124.432,410,714.883
67157.700,470,723.172
67191.087,410,708.055
67224.362,470,719.615
67257.749,410,699.647
67291.018,470,715.004
67324.406,410,696.716
67357.676,470,712.898
67391.066,410,694.617
67424.334,470,712.815
67457.723,410,703.593
67490.991,470,718.447
67524.377,410,703.132
67557.652,470,721.262
67591.038,410,700.659
67624.308,470,719.878
67657.695,410,700.955
67690.968,470,718.595
67724.356,410,702.173
67757.631,470,720.418
67791.014,410,707.457
67824.286,470,721.167
67857.671,410,707.300
67890.944,470,720.830
67924.326,410,707.869
67957.605,470,723.672
67990.985,410,709.949
68024.262,470,724.899
68057.641,410,709.054
68090.919,470,729.357
68124.300,410,710.403
68157.581,470,731.140
68190.958,410,708.276
68224.238,470,736.167
68257.621,410,706.603
68290.893,470,737.359
68324.275,410,703.320
68357.554,470,736.206
68390.931,410,699.309
68424.210,470,734.085
68457.591,410,698.854
68490.871,470,733.711
68524.251,410,698.809
68557.531,470,742.841
68590.907,410,696.597
68624.192,470,747.002
68657.566,410,694.731
68690.851,470,747.044
68724.228,410,695.586
68757.505,470,749.686
68790.884,410,695.887
68824.165,470,750.576
68857.538,410,694.940
68890.825,470,747.195
68924.200,410,694.107
68957.480,470,742.284
68990.856,410,694.797
69024.139,470,739.295
69057.516,410,695.022
69090.801,470,735.690
69124.174,410,693.497
69157.459,470,733.859
69190.831,410,693.293
69224.118,470,732.142
69257.493,410,696.788
69290.771,470,730.808
69324.151,410,698.520
69357.432,470,732.355
69390.804,410,700.365
69424.091,470,737.992
69457.461,410,697.184
69490.752,470,742.990
69524.122,410,695.786
69557.405,470,740.163
69590.783,410,697.545
69624.065,470,742.207
69657.441,410,706.937
69690.728,470,745.180
69724.096,410,711.445
69757.383,470,749.129
69790.755,410,716.588
69824.043,470,751.405
69857.412,410,721.604
69890.702,470,756.827
69924.072,410,730.287
69957.356,470,753.764
69990.731,410,716.258
70024.016,470,730.462
70057.385,410,705.390
70090.676,470,726.594
70124.045,410,695.562
70157.333,470,720.778
70190.702,410,693.043
70223.991,470,715.558
70257.362,410,688.488
70290.653,470,712.350
70324.017,410,685.121
70357.311,470,710.257
70390.678,410,684.100
70423.968,470,710.078
70457.335,410,682.749
70490.628,470,708.113
70523.993,410,683.091
70557.288,470,706.792
70590.653,410,686.864
70623.943,470,708.499
70657.313,410,698.115
70690.605,470,711.169
70723.969,410,703.451
70757.263,470,713.954
70790.630,410,707.445
70823.918,470,713.854
70857.286,410,707.046
70890.575,470,713.025
70923.940,410,706.621
70957.240,470,717.195
70990.601,410,715.094
71023.898,470,723.009
71057.262,410,720.138
71090.550,470,728.668
71123.917,410,723.064
71157.211,470,731.684
71190.576,410,726.112
71223.873,470,730.968
71257.232,410,730.718
71290.531,470,736.859
71323.889,410,729.913
71357.187,470,738.686
71390.553,410,727.942
71423.849,470,737.697
71457.206,410,728.590
71490.502,470,735.888
71523.867,410,728.390
71557.166,470,734.383
71590.523,410,727.012
71623.819,470,734.709
71657.181,410,725.673
71690.480,470,730.454
71723.842,410,724.810
71757.137,470,735.863
71790.500,410,720.704
71823.797,470,725.921
71857.157,410,713.798
71890.455,470,721.630
71923.812,410,710.132
71957.114,470,716.231
71990.475,410,706.844
72023.775,470,713.932
72057.127,410,699.866
72090.431,470,707.406
72123.788,410,696.706
72157.090,470,706.544
72190.446,410,693.365
72223.751,470,707.935
72257.100,410,693.655
72290.408,470,709.639
72323.761,410,693.542
72357.062,470,712.313
72390.414,410,693.217
72423.719,470,714.360
72457.077,410,693.911
72490.381,470,714.605
72523.730,410,692.450
72557.042,470,715.285
72590.386,410,692.050
72623.698,470,713.611
72657.050,410,691.330
72690.356,470,711.481
72723.705,410,690.533
72757.013,470,713.255
72790.364,410,690.103
72823.673,470,714.541
72857.020,410,693.094
72890.327,470,718.260
72923.679,410,692.880
72956.985,470,726.317
72990.336,410,692.464
73023.647,470,728.328
73056.992,410,694.603
73090.303,470,729.123
73123.652,410,695.251
73156.960,470,729.357
73190.309,410,696.454
73223.621,470,729.143
73256.961,410,698.183
73290.278,470,728.577
73323.620,410,698.543
73356.940,470,727.911
73390.276,410,700.533
73423.592,470,727.208
73456.939,410,701.110
73490.252,470,726.062
73523.591,410,702.225
73556.908,470,727.008
73590.248,410,700.877
73623.571,470,725.485
73656.907,410,700.895
73690.228,470,722.851
73723.567,410,698.809
73756.886,470,721.065
73790.221,410,696.839
73823.541,470,720.851
73856.879,410,699.159
73890.205,470,724.938
73923.539,410,706.678
73956.860,470,731.310
73990.196,410,706.887
74023.519,470,729.772
74056.852,410,703.739
74090.179,470,727.585
74123.513,410,701.204
74156.837,470,726.224
74190.165,410,703.170
74223.490,470,725.850
74256.829,410,703.091
74290.148,470,723.891
74323.483,410,703.207
74356.808,470,724.450
74390.142,410,704.981
74423.464,470,726.334
74456.798,410,703.992
74490.126,470,727.145
74523.454,410,705.902
74556.783,470,727.729
74590.112,410,704.998
74623.443,470,725.563
74656.773,410,705.955
74690.103,470,726.539
74723.427,410,706.001
74756.761,470,727.031
74790.087,410,706.078
74823.415,470,727.938
74856.743,410,708.584
74890.071,470,732.774
74923.400,410,711.842
74956.732,470,736.052
74990.060,410,713.620
75023.393,470,736.455
75056.717,410,711.889
75090.051,470,739.415
75123.368,410,715.334
75156.710,470,738.052
75190.028,410,716.975
75223.365,470,737.318
75256.687,410,716.575
75290.022,470,734.594
75323.345,410,714.473
75356.682,470,734.505
75390.003,410,715.900
75423.341,470,735.938
75456.657,410,716.951
75490.000,470,739.682
