{"Light":{"Led410Enable":true;"Led470Enable":true;"Led560Enable":false;"Led410Value":50.0;"Led470Value":50.0;"Led560Value":100.0};"Excitation":{"mode":1;"discontinuous":false;"interval_time":1;"continuous_time":1};"Channels":[{"Name":"CH1";"ChanelColor":"#00000000";"Roi1":"346.171830985915;250.583098591549;96.1521126760566;96.1521126760566";"Roi2":"319;227;96.1521126760566;96.1521126760566"}];"AllMarking":[{"id":0;"type":1;"opened":true;"name":"STIM";"Levels":0;"color":"#FFFF0000";"key":0;"threshold":0.0;"ID":"0";"all":true;"channels":["AllChannel";"CH1"];"enable":true};{"id":0;"type":2;"opened":true;"name":"Input1";"Levels":0;"color":"#FFFF0000";"key":0;"threshold":0.0;"ID":"0";"all":true;"channels":["AllChannel";"CH1"];"enable":true};{"id":0;"type":2;"opened":true;"name":"Input2";"Levels":0;"color":"#FF604A7B";"key":0;"threshold":0.0;"ID":"0";"all":true;"channels":["AllChannel";"CH1"];"enable":true};{"id":0;"type":2;"opened":true;"name":"Input3";"Levels":0;"color":"#FF92D050";"key":0;"threshold":0.0;"ID":"0";"all":true;"channels":["AllChannel";"CH1"];"enable":true};{"id":0;"type":2;"opened":true;"name":"Input4";"Levels":0;"color":"#FF0099FF";"key":0;"threshold":0.0;"ID":"0";"all":true;"channels":["AllChannel";"CH1"];"enable":true}];"Fps":30.0}
TimeStamp,Events,CH1-410,CH1-470,
0.000,,846.694,934.648,
66.670,,840.849,924.133,
133.336,,835.528,915.269,
199.998,,833.336,913.122,
266.670,,826.761,898.223,
333.336,,816.703,874.397,
400.000,,801.627,853.003,
466.668,,791.838,836.399,
533.336,,784.932,836.226,
600.004,,787.575,836.348,
666.669,,788.412,843.534,
733.331,,787.673,835.085,
799.999,,786.313,831.145,
866.665,,784.410,832.172,
933.336,,794.166,848.654,
1000.001,,801.518,864.694,
1066.667,,803.195,848.540,
1133.332,,789.815,835.261,
1200.001,,789.534,831.609,
1266.669,,783.150,821.162,
1333.336,,777.663,817.319,
1400.002,,772.260,813.192,
1466.670,,773.794,817.913,
1533.336,,777.255,814.495,
1600.002,,775.106,812.900,
1666.668,,778.195,814.941,
1733.334,,774.705,807.343,
1799.998,,771.513,809.745,
1866.666,,770.516,814.975,
1933.334,,768.068,812.234,
2000.002,,768.794,811.542,
2066.670,,768.558,808.500,
2133.332,,768.969,807.716,
2200.003,,768.722,805.792,
2266.670,,769.170,804.050,
2333.332,,767.955,801.628,
2400.004,,768.049,802.725,
2466.665,,765.505,802.553,
2533.337,,767.092,803.164,
2600.004,,765.023,805.626,
2666.666,,765.682,802.503,
2733.337,,763.578,803.898,
2800.002,,765.052,805.068,
2866.670,,766.752,805.633,
2933.331,,768.364,804.874,
3000.001,,773.404,815.155,
3066.671,,781.195,817.942,
3133.333,,788.010,825.631,
3200.001,,795.157,827.666,
3266.666,,801.275,833.971,
3333.332,,801.923,836.617,
3400.004,,801.236,835.720,
3466.666,,799.220,833.751,
3533.333,,789.491,823.678,
3600.002,,783.374,825.576,
3666.664,,782.915,825.486,
3733.336,,782.614,827.781,
3799.998,,784.559,834.870,
3866.669,,788.875,832.732,
3933.335,,785.830,827.954,
4000.000,,785.144,823.464,
4066.670,,784.247,826.958,
4133.332,,788.423,831.285,
4200.004,,789.581,831.549,
4266.669,,789.889,829.780,
4333.332,,790.622,832.886,
4399.998,,795.271,835.884,
4466.669,,793.635,838.360,
4533.332,,790.130,844.268,
4600.004,,790.104,843.431,
4666.669,,787.612,837.961,
4733.335,,786.716,846.945,
4800.002,,785.749,854.911,
4866.667,,789.507,856.227,
4933.335,,788.849,853.236,
5000.003,,789.808,848.967,
5066.665,,787.683,843.990,
5133.333,,788.877,842.201,
5200.003,,789.627,840.048,
5266.664,,790.166,834.987,
5333.333,,787.938,832.403,
5400.002,,790.527,829.826,
5466.665,,790.513,828.767,
5533.337,,793.572,828.385,
5600.003,,791.154,821.392,
5666.669,,784.162,809.362,
5733.334,,779.250,807.863,
5799.999,,778.543,803.787,
5866.666,,779.317,806.938,
5933.338,,783.024,810.316,
6000.002,,780.223,807.115,
6066.670,,777.741,804.288,
6133.331,,772.621,794.278,
6200.000,,767.805,788.509,
6266.666,,766.836,782.130,
6333.334,,764.636,779.713,
6399.999,,761.399,774.538,
6466.670,,754.752,770.260,
6533.337,,754.068,771.483,
6600.000,,754.735,769.726,
6666.665,,752.304,770.890,
6733.332,,744.344,773.972,
6799.998,,742.678,769.880,
6866.667,,739.208,763.925,
6933.334,,733.835,759.483,
7000.000,,735.838,758.398,
7066.668,,733.314,755.265,
7133.335,,734.705,755.283,
7200.002,,742.650,762.551,
7266.666,,756.275,772.995,
7333.332,,773.096,785.024,
7400.002,,782.435,789.456,
7466.668,,790.956,787.046,
7533.336,,783.596,790.663,
7600.003,,787.772,790.577,
7666.666,,792.695,795.250,
7733.331,,790.865,796.522,
7800.002,,793.180,805.241,
7866.665,,792.000,808.758,
7933.336,,787.385,805.770,
8000.000,,782.051,806.952,
8066.670,,782.520,806.993,
8133.332,,780.619,802.729,
8199.999,,781.648,803.998,
8266.667,,783.320,802.543,
8333.331,,783.282,813.182,
8400.002,,784.267,821.055,
8466.664,,785.308,825.986,
8533.332,,786.182,832.910,
8600.004,,788.033,839.284,
8666.670,,790.448,837.147,
8733.332,,787.713,831.961,
8799.999,,787.365,827.046,
8866.665,,786.367,826.563,
8933.335,,788.885,827.992,
8999.999,,788.015,826.649,
9066.670,,788.505,827.209,
9133.334,,788.576,826.580,
9199.998,,787.283,826.197,
9266.671,,788.247,828.037,
9333.336,,787.904,837.645,
9399.999,,788.767,834.069,
9466.667,,785.383,828.095,
9533.337,,785.876,826.213,
9600.001,,786.546,822.907,
9666.665,,785.967,820.680,
9733.334,,785.628,815.710,
9799.999,,783.797,813.563,
9866.666,,784.794,812.370,
9933.332,,784.531,810.593,
10000.000,,783.295,812.864,
10066.668,,783.694,811.578,
10133.335,,782.602,809.300,
10199.999,,783.095,808.797,
10266.667,,781.499,806.089,
10333.333,,778.767,802.451,
10400.001,,777.713,798.834,
10466.670,,776.037,799.613,
10533.336,,775.340,802.540,
10600.000,,773.506,802.103,
10666.669,,769.386,802.289,
10733.333,,769.685,804.012,
10800.002,,771.142,807.169,
10866.668,,774.843,806.421,
10933.331,,774.093,803.256,
10999.998,,780.722,812.219,
11066.667,,787.072,817.745,
11133.335,,791.732,817.073,
11200.001,,790.324,816.218,
11266.665,,792.989,816.237,
11333.334,,793.351,813.603,
11400.001,,793.859,812.315,
11466.664,,792.853,808.730,
11533.332,,793.605,807.012,
11600.001,,793.530,804.790,
11666.669,,791.092,802.429,
11733.331,,790.093,799.956,
11800.001,,789.410,799.588,
11866.669,,788.961,799.538,
11933.331,,787.380,798.271,
12000.003,,787.144,802.368,
12066.666,,787.144,805.505,
12133.336,,784.859,806.331,
12200.003,,785.961,808.963,
12266.666,,785.189,814.147,
12333.335,,785.277,819.111,
12400.001,,785.671,823.450,
12466.666,,784.443,825.138,
12533.333,,785.190,820.543,
12599.998,,784.291,816.714,
12666.667,,784.988,815.968,
12733.334,,784.445,812.553,
12800.004,,783.887,810.433,
12866.666,,785.873,807.151,
12933.331,,784.432,803.466,
13000.002,,785.304,803.407,
13066.669,,784.695,798.820,
13133.331,,782.019,799.887,
13200.000,,787.967,804.032,
13266.668,,791.106,811.723,
13333.337,,794.192,809.266,
13399.998,,786.621,796.593,
13466.666,,779.480,790.064,
13533.337,,775.078,789.097,
13599.998,,774.641,788.104,
13666.669,,774.672,790.192,
13733.331,,774.215,793.905,
13799.998,,781.301,800.722,
13866.668,,780.850,800.407,
13933.335,,786.765,804.472,
13999.998,,781.800,796.455,
14066.666,,777.027,793.698,
14133.332,,778.831,794.204,
14200.000,,779.323,797.097,
14266.669,,784.295,800.368,
14333.332,,781.167,792.879,
14400.002,,772.588,794.663,
14466.669,,776.512,811.414,
14533.333,,772.431,812.441,
14600.003,,765.953,793.184,
14666.666,,747.879,774.123,
14733.336,,736.238,765.088,
14800.001,,733.940,765.786,
14866.666,,744.619,771.707,
14933.332,,751.212,769.772,
15000.004,,744.006,756.424,
15066.671,,736.271,753.183,
15133.333,,738.382,753.602,
15199.999,,737.999,755.140,
15266.671,,739.358,754.835,
15333.333,,735.830,753.157,
15400.004,,733.067,755.645,
15466.666,,738.844,764.418,
15533.333,,742.836,763.575,
15600.003,,752.302,776.435,
15666.669,,764.109,783.371,
15733.331,,773.021,789.516,
15800.003,,776.925,794.562,
15866.665,,785.833,802.096,
15933.335,,793.464,806.529,
15999.983,,790.521,809.559,
16066.630,,794.577,808.853,
16133.272,,793.069,806.146,
16199.920,,794.818,805.604,
16266.569,,797.122,807.412,
16333.208,,799.292,812.406,
16399.857,,801.050,814.163,
16466.499,,801.451,816.987,
16533.148,,799.643,817.955,
16599.792,,795.850,810.427,
16666.439,,781.516,796.114,
16733.086,,776.846,787.856,
16799.727,,772.670,784.529,
16866.375,,769.253,778.286,
16933.018,,765.814,778.217,
16999.657,,766.855,790.109,
17066.307,,766.801,799.440,
17132.950,,762.794,794.388,
17199.593,,757.609,794.067,
17266.236,,760.417,801.427,
17332.882,,768.986,808.786,
17399.519,,772.950,808.995,
17466.168,,770.951,810.026,
17532.808,,772.622,810.798,
17599.451,,772.648,811.525,
17666.092,,774.237,812.695,
17732.734,,777.750,812.913,
17799.378,,774.334,810.527,
17866.022,,775.887,810.057,
17932.661,,774.720,808.257,
17999.305,,775.482,807.486,
18065.943,,774.423,804.355,
18132.585,,771.614,803.830,
18199.224,,771.471,802.794,
18265.866,,770.313,804.231,
18332.508,,774.545,803.212,
18399.146,,771.874,800.482,
18465.787,,769.201,794.148,
18532.429,,769.062,796.704,
18599.067,,768.314,796.544,
18665.710,,767.040,800.723,
18732.347,,767.428,798.155,
18798.989,,766.991,792.495,
18865.629,,762.907,791.892,
18932.268,,765.365,791.651,
18998.910,,765.600,793.858,
19065.544,,766.796,802.176,
19132.186,,767.013,800.605,
19198.826,,773.405,802.798,
19265.460,,775.563,806.531,
19332.099,,780.124,804.369,
19398.740,,778.509,803.406,
19465.378,,780.308,800.042,
19532.014,,779.725,811.864,
19598.650,,780.302,815.996,
19665.288,,781.249,815.071,
19731.927,,781.803,812.333,
19798.564,,782.591,808.433,
19865.199,,782.974,806.008,
19931.837,,782.790,802.546,
19998.473,,782.688,799.951,
20065.109,,784.183,800.963,
20131.749,,785.240,798.355,
20198.382,,784.376,793.944,
20265.019,,776.430,792.809,
20331.659,,780.631,792.071,
20398.292,,779.743,791.869,
20464.927,,779.318,793.891,
20531.561,,781.054,797.056,
20598.198,,780.719,798.201,
20664.835,,779.193,795.406,
20731.467,,774.858,789.858,
20798.103,,772.402,787.875,
20864.739,,771.006,782.231,
20931.372,,770.410,784.617,
20998.008,,770.119,781.446,
21064.639,,768.501,782.281,
21131.276,,769.540,785.575,
21197.909,,774.894,788.341,
21264.538,,774.938,792.379,
21331.171,,774.886,800.027,
21397.805,,774.331,798.240,
21464.436,,775.267,797.181,
21531.072,,775.936,798.120,
21597.708,,774.939,802.805,
21664.335,,775.217,803.911,
21730.972,,773.677,803.668,
21797.599,,774.911,806.177,
21864.231,,774.253,809.669,
21930.866,,774.193,802.542,
21997.494,,775.554,799.648,
22064.128,,775.748,799.193,
22130.757,,775.952,796.547,
22197.390,,774.193,793.479,
22264.018,,774.892,798.156,
22330.654,,776.339,797.661,
22397.286,,775.594,797.131,
22463.915,,776.749,798.491,
22530.542,,775.589,811.213,
22597.175,,776.587,814.282,
22663.805,,776.413,811.809,
22730.434,,774.712,810.640,
22797.064,,775.523,808.870,
22863.696,,774.911,808.350,
22930.321,,775.775,811.138,
22996.952,,775.720,810.894,
23063.582,,774.588,813.535,
23130.211,,776.226,814.096,
23196.841,,776.037,811.199,
23263.469,,776.392,809.724,
23330.094,,775.850,806.417,
23396.724,,775.129,805.945,
23463.353,,776.281,803.967,
23529.980,,776.054,799.592,
23596.610,,775.479,798.210,
23663.237,,776.683,797.140,
23729.861,,775.523,793.667,
23796.491,,776.390,793.172,
23863.113,,776.586,792.844,
23929.745,,774.324,794.480,
23996.397,,775.418,794.040,
24063.056,,775.688,791.701,
24129.720,,775.239,792.264,
24196.376,,777.289,790.623,
24263.034,,775.837,789.092,
24329.693,,776.512,790.051,
24396.354,,776.062,788.552,
24463.007,,775.234,788.169,
24529.672,,776.420,787.091,
24596.325,,775.654,786.625,
24662.987,,774.834,784.363,
24729.649,,773.133,785.471,
24796.303,,775.759,785.085,
24862.962,,777.471,784.393,
24929.624,,778.846,788.418,
24996.281,,781.288,789.273,
25062.936,,778.797,782.498,
25129.595,,775.502,779.630,
25196.255,,772.610,776.638,
25262.915,,772.145,775.676,
25329.572,,772.049,773.261,
25396.234,,771.019,773.315,
25462.892,,769.689,772.161,
25529.554,,768.030,773.101,
25596.212,,768.480,770.371,
25662.870,,765.689,770.268,
25729.527,,765.603,768.343,
25796.186,,764.238,769.756,
25862.843,,765.269,766.435,
25929.504,,760.993,762.503,
25996.165,,754.371,754.002,
26062.822,,746.683,751.018,
26129.483,,745.961,747.153,
26196.139,,742.384,749.404,
26262.796,,751.675,755.526,
26329.456,,749.186,754.147,
26396.115,,748.723,754.552,
26462.775,,749.545,755.911,
26529.434,,748.206,752.927,
26596.092,,744.408,748.641,
26662.752,,740.759,746.399,
26729.411,,742.225,748.193,
26796.069,,743.685,746.124,
26862.730,,742.451,745.350,
26929.391,,744.221,744.416,
26996.048,,742.871,742.901,
27062.707,,742.964,745.214,
27129.364,,745.377,744.279,
27196.022,,744.097,745.350,
27262.687,,746.105,746.141,
27329.344,,746.001,745.350,
27396.002,,745.219,747.448,
27462.659,,745.001,751.047,
27529.319,,742.784,748.975,
27595.981,,734.717,741.651,
27662.640,,730.737,739.380,
27729.296,,722.643,734.055,
27795.956,,721.441,735.557,
27862.616,,724.172,739.715,
27929.276,,724.228,741.284,
27995.933,,726.570,742.721,
28062.593,,730.000,746.728,
28129.251,,745.921,763.452,
28195.913,,758.742,768.929,
28262.575,,775.120,789.073,
28329.234,,783.422,795.779,
28395.892,,786.824,805.013,
28462.551,,788.245,811.981,
28529.210,,792.736,816.983,
28595.866,,791.792,814.225,
28662.528,,789.839,817.828,
28729.184,,791.386,820.853,
28795.847,,789.897,819.872,
28862.509,,787.708,821.507,
28929.162,,787.173,821.295,
28995.826,,784.869,820.625,
29062.486,,785.849,816.899,
29129.144,,783.427,824.119,
29195.804,,783.836,826.060,
29262.460,,781.508,822.696,
29329.124,,773.422,811.775,
29395.778,,766.815,795.048,
29462.443,,753.837,784.958,
29529.102,,745.880,784.815,
29595.763,,757.237,804.098,
29662.421,,767.182,818.436,
29729.077,,777.949,810.786,
29795.735,,765.490,793.024,
29862.395,,764.345,801.651,
29929.055,,774.044,812.167,
29995.714,,781.721,814.104,
30062.375,,783.334,816.391,
30129.035,,785.853,810.549,
30195.692,,773.769,791.245,
30262.353,,764.119,774.297,
30329.012,,750.316,762.514,
30395.671,,747.234,759.614,
30462.337,,744.812,762.397,
30528.990,,753.060,774.155,
30595.652,,751.365,793.918,
30662.313,,743.208,810.807,
30728.971,,750.733,820.700,
30795.629,,749.767,823.992,
30862.289,,749.332,813.910,
30928.953,,739.646,795.897,
30995.609,,735.642,789.018,
31062.267,,733.441,790.235,
31128.929,,740.667,804.123,
31195.592,,771.268,834.820,
31262.252,,771.955,837.042,
31328.911,,778.385,830.760,
31395.566,,781.091,835.029,
31462.230,,779.546,825.084,
31528.892,,780.736,824.502,
31595.551,,781.464,828.200,
31662.206,,782.975,823.383,
31728.871,,780.446,831.059,
31795.527,,780.136,831.584,
31862.189,,782.084,829.455,
31928.846,,781.303,830.777,
31995.509,,781.398,830.522,
32062.166,,782.654,833.792,
32128.824,,781.426,839.072,
32195.479,,781.403,835.458,
32262.135,,778.980,833.221,
32328.798,,775.595,828.592,
32395.458,,776.975,826.075,
32462.111,,776.387,822.548,
32528.769,,775.644,820.052,
32595.433,,775.333,816.501,
32662.088,,768.359,806.476,
32728.750,,765.569,796.403,
32795.406,,759.848,788.522,
32862.062,,757.757,784.894,
32928.721,,759.008,788.192,
32995.377,,761.132,787.024,
33062.037,,757.833,782.777,
33128.700,,755.872,779.490,
33195.352,,753.488,773.419,
33262.013,,751.927,773.194,
33328.671,,752.330,783.362,
33395.332,,761.267,808.488,
33461.987,,759.540,801.092,
33528.648,,753.978,795.750,
33595.307,,752.862,792.803,
33661.965,,754.878,799.860,
33728.623,,761.980,809.989,
33795.277,,761.919,803.369,
33861.937,,762.414,802.529,
33928.598,,761.510,807.756,
33995.253,,762.499,805.149,
34061.916,,763.098,803.132,
34128.572,,762.724,806.891,
34195.232,,765.880,806.212,
34261.890,,768.574,807.417,
34328.549,,769.663,801.119,
34395.201,,768.078,793.023,
34461.863,,762.779,784.246,
34528.525,,756.226,774.463,
34595.183,,751.018,768.467,
34661.841,,748.389,764.427,
34728.499,,745.948,762.117,
34795.156,,743.654,760.080,
34861.814,,744.945,759.505,
34928.471,,744.604,764.481,
34995.133,,749.519,769.325,
35061.792,,750.102,771.889,
35128.445,,755.308,773.937,
35195.107,,759.037,775.351,
35261.765,,761.160,773.601,
35328.426,,759.522,772.722,
35395.079,,759.037,769.568,
35461.740,,757.771,765.945,
35528.396,,755.211,768.345,
35595.054,,760.941,772.113,
35661.712,,762.802,776.333,
35728.374,,763.603,775.654,
35795.031,,763.691,777.081,
35861.689,,762.340,777.301,
35928.348,,758.034,772.270,
35995.010,,760.895,775.318,
36061.662,,763.616,777.379,
36128.324,,766.208,780.270,
36194.983,,768.247,778.868,
36261.641,,768.974,778.181,
36328.302,,770.732,778.829,
36394.959,,770.912,781.172,
36461.619,,772.834,779.134,
36528.277,,772.314,775.461,
36594.931,,772.837,771.197,
36661.593,,767.379,771.626,
36728.247,,768.368,779.027,
36794.907,,777.706,788.999,
36861.570,,781.106,789.878,
36928.225,,779.588,790.700,
36994.885,,780.159,807.763,
37061.543,,780.454,817.730,
37128.201,,782.279,820.024,
37194.857,,782.365,815.752,
37261.518,,781.054,811.777,
37328.177,,781.612,807.807,
37394.834,,784.754,807.325,
37461.493,,786.148,805.152,
37528.151,,784.411,799.558,
37594.813,,780.833,796.808,
37661.473,,779.447,792.939,
37728.130,,778.306,787.051,
37794.788,,772.409,777.244,
37861.446,,765.942,767.222,
37928.107,,758.672,760.882,
37994.766,,752.841,753.794,
38061.424,,745.751,753.653,
38128.079,,743.893,749.556,
38194.736,,740.282,744.581,
38261.395,,727.779,737.866,
38328.054,,721.510,739.842,
38394.714,,717.031,738.257,
38461.370,,716.338,736.743,
38528.032,,713.131,734.891,
38594.692,,709.698,735.535,
38661.347,,707.365,742.135,
38728.010,,706.416,741.581,
38794.667,,706.078,739.039,
38861.323,,704.937,737.513,
38927.985,,703.712,738.872,
38994.642,,703.549,743.032,
39061.299,,708.384,746.731,
39127.957,,708.955,753.443,
39194.618,,712.626,767.296,
39261.280,,714.013,779.596,
39327.933,,715.036,776.843,
39394.592,,707.774,771.983,
39461.254,,704.214,766.216,
39527.910,,703.736,759.830,
39594.573,,703.588,753.628,
39661.231,,702.631,749.572,
39727.885,,701.288,745.244,
39794.547,,702.421,742.125,
39861.202,,702.802,740.331,
39927.860,,703.253,737.674,
39994.523,,702.109,736.319,
40061.182,,701.524,733.841,
40127.838,,699.601,732.393,
40194.499,,695.545,732.741,
40261.154,,694.449,749.614,
40327.809,,693.585,784.214,
40394.473,,692.258,798.051,
40461.127,,691.604,804.904,
40527.786,,691.481,797.940,
40594.444,,691.345,793.531,
40661.101,,691.709,787.169,
40727.759,,693.061,781.826,
40794.421,,692.673,773.652,
40861.077,,691.849,768.096,
40927.736,,691.229,762.522,
40994.395,,691.616,759.277,
41061.054,,691.586,757.206,
41127.709,,691.277,760.320,
41194.370,,690.686,756.112,
41261.027,,691.233,753.970,
41327.685,,691.967,752.064,
41394.343,,692.778,748.281,
41461.000,,692.823,745.312,
41527.659,,693.001,741.386,
41594.316,,697.312,739.935,
41660.978,,701.317,739.134,
41727.637,,703.320,737.759,
41794.294,,705.216,736.193,
41860.951,,707.681,741.549,
41927.611,,706.932,748.889,
41994.265,,699.799,755.017,
42060.925,,698.284,755.242,
42127.583,,696.836,755.850,
42194.240,,697.359,754.392,
42260.897,,698.274,753.731,
42327.559,,700.846,750.740,
42394.215,,702.396,747.366,
42460.872,,702.437,743.103,
42527.534,,702.427,739.593,
42594.191,,703.975,736.215,
42660.851,,702.803,734.996,
42727.507,,699.783,732.895,
42794.169,,698.123,731.288,
42860.827,,699.754,728.246,
42927.483,,702.680,730.322,
42994.143,,710.666,732.291,
43060.799,,713.229,733.853,
43127.461,,713.429,734.338,
43194.117,,710.137,733.453,
43260.773,,711.087,734.048,
43327.431,,712.089,732.502,
43394.090,,712.297,734.666,
43460.747,,713.234,737.304,
43527.411,,712.985,741.136,
43594.069,,714.191,741.446,
43660.725,,713.593,742.478,
43727.386,,714.597,744.391,
43794.042,,714.762,742.026,
43860.700,,712.226,741.994,
43927.354,,713.649,742.087,
43994.018,,713.102,740.037,
44060.673,,712.500,739.788,
44127.333,,713.358,737.862,
44193.993,,712.372,734.924,
44260.652,,713.414,733.685,
44327.306,,712.571,734.747,
44393.968,,711.792,735.610,
44460.624,,712.776,734.553,
44527.285,,711.924,731.817,
44593.943,,712.039,730.099,
44660.597,,711.814,727.014,
44727.257,,703.545,721.238,
44793.914,,699.874,719.784,
44860.572,,699.965,717.874,
44927.231,,699.788,719.805,
44993.892,,700.904,720.219,
45060.548,,702.807,721.690,
45127.209,,708.329,726.497,
45193.862,,712.102,727.070,
45260.524,,723.960,739.269,
45327.181,,730.862,734.046,
45393.839,,722.387,737.596,
45460.498,,729.291,755.594,
45527.155,,747.453,766.673,
45593.818,,757.823,778.607,
45660.472,,759.835,759.819,
45727.131,,736.348,741.263,
45793.790,,728.800,749.918,
45860.449,,751.214,762.637,
45927.108,,745.384,745.932,
45993.764,,727.944,742.761,
46060.427,,729.420,757.378,
46127.084,,740.054,774.733,
46193.741,,756.762,783.574,
46260.398,,764.458,791.048,
46327.055,,766.370,796.483,
46393.716,,768.836,800.949,
46460.374,,769.317,801.019,
46527.035,,767.022,794.175,
46593.690,,761.225,781.600,
46660.350,,747.783,770.683,
46727.005,,736.948,759.415,
46793.667,,728.934,749.910,
46860.325,,725.858,747.463,
46926.984,,721.964,742.405,
46993.639,,719.210,744.109,
47060.300,,722.703,741.540,
47126.961,,718.533,740.403,
47193.614,,719.226,742.947,
47260.278,,720.887,745.344,
47326.936,,719.721,748.212,
47393.591,,721.552,746.898,
47460.251,,719.824,748.044,
47526.908,,719.716,745.043,
47593.567,,716.459,743.189,
47660.223,,719.532,747.237,
47726.885,,721.832,745.738,
47793.543,,724.086,749.948,
47860.204,,724.375,750.254,
47926.863,,723.036,753.334,
47993.515,,726.565,762.652,
48060.177,,731.878,764.192,
48126.834,,729.284,762.983,
48193.491,,733.404,764.108,
48260.154,Input1*2*0,730.473,761.104,
48326.810,,727.700,754.986,
48393.470,Input1*2*1,721.484,753.943,
48460.126,,724.409,766.731,
48526.792,,740.016,776.767,
48593.448,,751.667,787.017,
48660.107,,755.086,797.826,
48726.764,,755.843,805.862,
48793.422,,760.215,807.049,
48860.082,,759.000,803.470,
48926.744,,756.718,799.532,
48993.401,,755.421,783.752,
49060.061,,743.498,773.201,
49126.719,,745.383,778.146,
49193.378,,749.142,779.606,
49260.033,,750.588,776.796,
49326.695,,752.380,778.214,
49393.351,,752.496,772.814,
49460.013,,749.436,758.319,
49526.669,,734.405,744.998,
49593.330,,721.836,745.265,
49659.989,,734.967,747.295,
49726.646,,742.932,773.873,
49793.288,,755.756,784.198,
49859.963,,758.840,781.194,
49926.623,,751.377,779.095,
49993.280,,754.685,775.782,
50059.941,,756.944,773.938,
50126.599,,755.085,775.943,
50193.256,,754.936,769.103,
50259.921,,753.271,770.418,
50326.578,,751.607,760.561,
50393.234,,749.767,758.938,
50459.892,,744.742,752.880,
50526.553,,736.766,741.457,
50593.213,,733.091,742.837,
50659.871,,732.833,734.920,
50726.530,,727.002,735.662,
50793.186,,718.118,732.208,
50859.844,,715.080,732.333,
50926.507,,715.191,729.079,
50993.164,,711.374,728.636,
51059.826,,713.330,729.272,
51126.485,,716.565,728.754,
51193.143,,721.839,735.655,
51259.802,,730.238,734.600,
51326.462,,726.901,733.223,
51393.117,,726.787,734.271,
51459.780,,728.591,736.623,
51526.433,,731.428,735.724,
51593.097,,728.320,732.127,
51659.752,,715.199,727.984,
51726.414,,707.637,721.740,
51793.068,,703.756,719.594,
51859.728,,701.714,717.884,
51926.388,,702.262,717.636,
51993.048,,702.631,717.031,
52059.711,,705.195,715.653,
52126.364,,704.932,716.936,
52193.023,,710.200,718.175,
52259.686,,712.125,719.330,
52326.345,,715.344,720.936,
52392.999,,714.366,717.336,
52459.664,,711.904,716.935,
52526.320,,717.963,721.223,
52592.977,,720.162,745.163,
52659.637,,738.514,761.636,
52726.297,,746.184,770.096,
52792.957,,746.023,762.448,
52859.617,,745.292,764.183,
52926.274,,745.497,758.920,
52992.933,,744.991,756.170,
53059.589,,743.529,751.043,
53126.254,,742.116,747.818,
53192.910,,739.543,745.985,
53259.565,,734.252,741.978,
53326.230,,729.795,735.578,
53392.889,,732.960,741.137,
53459.548,,722.014,730.674,
53526.206,,717.160,727.667,
53592.861,,709.700,720.051,
53659.520,,705.903,720.087,
53726.180,,708.977,719.372,
53792.842,,708.846,718.026,
53859.501,,709.616,717.540,
53926.161,,710.891,718.035,
53992.817,,710.724,721.216,
54059.477,,711.781,719.867,
54126.137,,710.187,718.255,
54192.795,,711.295,717.508,
54259.457,,711.960,716.282,
54326.116,,710.202,717.028,
54392.773,,711.968,716.931,
54459.433,,711.366,716.918,
54526.087,,711.832,718.483,
54592.746,,712.186,719.915,
54659.411,,710.561,720.719,
54726.070,,712.449,720.172,
54792.725,,712.389,718.147,
54859.387,,711.754,717.855,
54926.046,,712.126,717.672,
54992.706,,711.397,715.789,
55059.365,,712.831,716.869,
55126.022,,713.235,715.882,
55192.678,,711.955,715.047,
55259.338,,713.540,717.573,
55325.995,,713.262,718.095,
55392.656,,711.561,720.226,
55459.317,,713.359,720.450,
55525.977,,711.722,720.639,
55592.635,,713.116,721.128,
55659.296,,712.928,721.331,
55725.956,,712.196,726.164,
55792.614,,714.078,725.768,
55859.271,,713.042,722.755,
55925.930,,713.256,722.476,
55992.586,,713.294,721.224,
56059.244,,712.711,720.117,
56125.903,,714.652,718.901,
56192.561,,713.864,719.002,
56259.217,,713.119,722.278,
56325.877,,714.131,721.618,
56392.535,,713.685,721.292,
56459.194,,714.377,722.263,
56525.852,,714.493,722.564,
56592.507,,712.526,722.458,
56659.165,,714.415,722.425,
56725.824,,714.479,723.554,
56792.480,,713.030,724.856,
56859.134,,714.630,724.707,
56925.792,,714.333,723.841,
56992.453,,714.480,724.654,
57059.112,,714.514,723.874,
57125.768,,713.356,723.401,
57192.423,,714.642,723.010,
57259.082,,714.236,721.919,
57325.740,,713.471,721.664,
57392.401,,714.968,720.850,
57459.054,,714.921,720.324,
57525.711,,711.756,717.797,
57592.368,,710.090,718.382,
57659.030,,713.305,721.822,
57725.689,,717.819,728.110,
57792.347,,711.385,732.767,
57859.000,,698.775,737.108,
57925.657,,704.573,746.853,
57992.313,,719.698,753.770,
58058.977,,725.227,754.707,
58125.633,,729.662,753.583,
58192.292,,729.441,752.437,
58258.950,,734.792,755.361,
58325.601,,735.407,750.936,
58392.261,,736.420,752.242,
58458.920,,735.392,748.781,
58525.575,,735.202,746.038,
58592.234,,733.846,742.633,
58658.890,,729.518,736.242,
58725.553,,726.654,737.188,
58792.208,,728.499,746.763,
58858.862,,745.787,751.740,
58925.520,,736.019,737.838,
58992.184,,735.950,738.382,
59058.841,,736.122,734.241,
59125.495,,733.138,731.590,
59192.152,,730.962,729.489,
59258.814,,726.208,725.633,
59325.467,,725.065,722.827,
59392.128,,724.957,722.285,
59458.784,,725.407,721.905,
59525.441,,724.108,720.755,
59592.100,,725.161,721.273,
59658.759,,724.776,720.596,
59725.416,,724.032,722.719,
59792.075,,725.077,724.180,
59858.727,,724.722,724.790,
59925.384,,724.842,726.421,
59992.042,,724.696,727.706,
60058.703,,723.209,729.842,
60125.359,,724.660,731.374,
60192.018,,724.308,730.121,
60258.676,,723.873,731.028,
60325.329,,724.903,730.188,
60391.990,,723.912,728.830,
60458.648,,724.907,730.672,
60525.306,,724.922,731.066,
60591.963,,723.210,734.402,
60658.618,,724.623,735.408,
60725.276,,724.804,734.548,
60791.938,,723.150,735.049,
60858.596,,724.205,734.728,
60925.252,,723.793,733.961,
60991.907,,725.159,733.484,
61058.569,,725.243,734.284,
61125.224,,723.454,738.214,
61191.879,,724.132,737.605,
61258.540,,720.013,734.140,
61325.199,,716.344,737.933,
61391.851,,721.068,744.572,
61458.508,,718.634,744.521,
61525.172,,719.802,744.055,
61591.824,,727.082,746.697,
61658.481,,731.430,747.022,
61725.140,,736.454,748.146,
61791.799,,742.212,747.901,
61858.457,,743.608,745.253,
61925.111,,743.600,744.666,
61991.773,,744.085,741.394,
62058.428,,744.614,739.376,
62125.090,,741.702,742.343,
62191.743,,741.878,743.981,
62258.404,,742.572,746.731,
62325.061,,743.439,751.868,
62391.717,,743.020,755.596,
62458.379,,743.049,755.292,
62525.029,,742.100,754.948,
62591.693,,742.157,755.308,
62658.347,,741.224,753.115,
62725.005,,744.275,755.390,
62791.664,,742.996,761.141,
62858.322,,744.277,763.431,
62924.981,,744.386,766.232,
62991.637,,742.013,765.307,
63058.292,,746.639,760.558,
63124.948,,744.919,761.907,
63191.612,,746.549,759.486,
63258.267,,744.745,759.014,
63324.923,,745.348,768.810,
63391.579,,747.486,772.416,
63458.236,,744.635,776.765,
63524.899,,743.319,776.712,
63591.553,,744.030,776.412,
63658.210,,745.427,776.304,
63724.866,,743.445,771.230,
63791.527,,742.683,771.037,
63858.181,,744.407,771.873,
63924.841,,744.964,769.138,
63991.503,,743.323,768.207,
64058.160,,743.982,763.902,
64124.816,,743.268,761.672,
64191.473,,743.055,757.826,
64258.131,,743.981,755.177,
64324.792,,742.190,752.973,
64391.446,,742.867,747.760,
64458.105,,743.612,748.665,
64524.768,,742.486,754.320,
64591.424,,743.397,755.504,
64658.083,,741.702,754.691,
64724.737,,741.165,753.270,
64791.397,,741.005,752.191,
64858.055,,741.813,753.323,
64924.713,,740.817,753.165,
64991.368,,735.278,744.143,
65058.032,,725.899,720.232,
65124.687,,699.247,708.495,
65191.342,,694.905,706.758,
65258.001,,692.681,706.690,
65324.661,,690.867,709.261,
65391.317,,688.546,713.843,
65457.981,,687.135,716.539,
65524.637,,685.594,717.058,
65591.294,,683.135,716.711,
65657.954,,682.393,715.409,
65724.613,,683.879,717.571,
65791.265,,694.594,728.649,
65857.927,,708.648,741.816,
65924.582,,714.830,746.837,
65991.239,,713.396,747.560,
66057.901,,713.839,739.431,
66124.560,,708.493,734.739,
66191.215,,698.031,731.649,
66257.877,,698.560,731.006,
66324.530,,701.623,732.970,
66391.193,,709.408,730.985,
66457.852,,702.237,731.625,
66524.509,,703.491,739.124,
66591.168,,717.868,749.954,
66657.822,,725.535,754.407,
66724.484,,737.320,755.228,
66791.137,,736.039,754.343,
66857.800,,739.214,751.051,
66924.452,,738.737,752.514,
66991.115,,741.379,748.952,
67057.771,,734.594,734.915,
67124.432,,714.883,723.172,
67191.087,,708.055,719.615,
67257.749,,699.647,715.004,
67324.406,,696.716,712.898,
67391.066,,694.617,712.815,
67457.723,,703.593,718.447,
67524.377,,703.132,721.262,
67591.038,,700.659,719.878,
67657.695,,700.955,718.595,
67724.356,,702.173,720.418,
67791.014,,707.457,721.167,
67857.671,,707.300,720.830,
67924.326,,707.869,723.672,
67990.985,,709.949,724.899,
68057.641,,709.054,729.357,
68124.300,,710.403,731.140,
68190.958,,708.276,736.167,
68257.621,,706.603,737.359,
68324.275,,703.320,736.206,
68390.931,,699.309,734.085,
68457.591,,698.854,733.711,
68524.251,,698.809,742.841,
68590.907,,696.597,747.002,
68657.566,,694.731,747.044,
68724.228,,695.586,749.686,
68790.884,,695.887,750.576,
68857.538,,694.940,747.195,
68924.200,,694.107,742.284,
68990.856,,694.797,739.295,
69057.516,,695.022,735.690,
69124.174,,693.497,733.859,
69190.831,,693.293,732.142,
69257.493,,696.788,730.808,
69324.151,,698.520,732.355,
69390.804,,700.365,737.992,
69457.461,,697.184,742.990,
69524.122,,695.786,740.163,
69590.783,,697.545,742.207,
69657.441,,706.937,745.180,
69724.096,,711.445,749.129,
69790.755,,716.588,751.405,
69857.412,,721.604,756.827,
69924.072,,730.287,753.764,
69990.731,,716.258,730.462,
70057.385,,705.390,726.594,
70124.045,,695.562,720.778,
70190.702,,693.043,715.558,
70257.362,,688.488,712.350,
70324.017,,685.121,710.257,
70390.678,,684.100,710.078,
70457.335,,682.749,708.113,
70523.993,,683.091,706.792,
70590.653,,686.864,708.499,
70657.313,,698.115,711.169,
70723.969,,703.451,713.954,
70790.630,,707.445,713.854,
70857.286,,707.046,713.025,
70923.940,,706.621,717.195,
70990.601,,715.094,723.009,
71057.262,,720.138,728.668,
71123.917,,723.064,731.684,
71190.576,,726.112,730.968,
71257.232,,730.718,736.859,
71323.889,,729.913,738.686,
71390.553,,727.942,737.697,
71457.206,,728.590,735.888,
71523.867,,728.390,734.383,
71590.523,,727.012,734.709,
71657.181,,725.673,730.454,
71723.842,,724.810,735.863,
71790.500,,720.704,725.921,
71857.157,,713.798,721.630,
71923.812,,710.132,716.231,
71990.475,,706.844,713.932,
72057.127,,699.866,707.406,
72123.788,,696.706,706.544,
72190.446,,693.365,707.935,
72257.100,,693.655,709.639,
72323.761,,693.542,712.313,
72390.414,,693.217,714.360,
72457.077,,693.911,714.605,
72523.730,,692.450,715.285,
72590.386,,692.050,713.611,
72657.050,,691.330,711.481,
72723.705,,690.533,713.255,
72790.364,,690.103,714.541,
72857.020,,693.094,718.260,
72923.679,,692.880,726.317,
72990.336,,692.464,728.328,
73056.992,,694.603,729.123,
73123.652,,695.251,729.357,
73190.309,,696.454,729.143,
73256.961,,698.183,728.577,
73323.620,,698.543,727.911,
73390.276,,700.533,727.208,
73456.939,,701.110,726.062,
73523.591,,702.225,727.008,
73590.248,,700.877,725.485,
73656.907,,700.895,722.851,
73723.567,,698.809,721.065,
73790.221,,696.839,720.851,
73856.879,,699.159,724.938,
73923.539,,706.678,731.310,
73990.196,,706.887,729.772,
74056.852,,703.739,727.585,
74123.513,,701.204,726.224,
74190.165,,703.170,725.850,
74256.829,,703.091,723.891,
74323.483,,703.207,724.450,
74390.142,,704.981,726.334,
74456.798,,703.992,727.145,
74523.454,,705.902,727.729,
74590.112,,704.998,725.563,
74656.773,,705.955,726.539,
74723.427,,706.001,727.031,
74790.087,,706.078,727.938,
74856.743,,708.584,732.774,
74923.400,,711.842,736.052,
74990.060,,713.620,736.455,
75056.717,,711.889,739.415,
75123.368,,715.334,738.052,
75190.028,,716.975,737.318,
75256.687,,716.575,734.594,
75323.345,,714.473,734.505,
75390.003,,715.900,735.938,
75456.657,,716.951,739.682,
