{"Light":{"Led410Enable":true;"Led470Enable":true;"Led560Enable":false;"Led410Value":50.0;"Led470Value":50.0;"Led560Value":100.0};"Excitation":{"mode":1;"discontinuous":false;"interval_time":1;"continuous_time":1};"Channels":[{"Name":"CH1";"ChanelColor":"#00000000";"Roi1":"337.456338028169;222.898591549295;102.304225352113;102.304225352113";"Roi2":"319;227;102.304225352113;102.304225352113"}];"AllMarking":[{"id":0;"type":1;"opened":true;"name":"STIM";"Levels":0;"color":"#FFFF0000";"key":0;"threshold":0.0;"ID":"0";"all":true;"channels":["AllChannel";"CH1"];"enable":true};{"id":0;"type":2;"opened":true;"name":"Input1";"Levels":0;"color":"#FFFF0000";"key":0;"threshold":0.0;"ID":"0";"all":true;"channels":["AllChannel";"CH1"];"enable":true};{"id":0;"type":2;"opened":true;"name":"Input2";"Levels":0;"color":"#FF604A7B";"key":0;"threshold":0.0;"ID":"0";"all":true;"channels":["AllChannel";"CH1"];"enable":true};{"id":0;"type":2;"opened":true;"name":"Input3";"Levels":0;"color":"#FF92D050";"key":0;"threshold":0.0;"ID":"0";"all":true;"channels":["AllChannel";"CH1"];"enable":true};{"id":0;"type":2;"opened":true;"name":"Input4";"Levels":0;"color":"#FF0099FF";"key":0;"threshold":0.0;"ID":"0";"all":true;"channels":["AllChannel";"CH1"];"enable":true}];"Fps":30.0}
TimeStamp,Events,CH1-410,CH1-470,
0.000,,516.564,244.657,
66.665,,515.743,244.223,
133.332,,515.759,243.699,
199.998,,515.204,243.405,
266.670,,515.040,242.916,
333.337,,514.594,242.576,
400.003,,513.456,242.261,
466.664,,513.992,241.682,
533.337,,512.760,241.336,
599.998,,513.024,241.095,
666.670,,512.076,240.999,
733.332,,512.934,241.137,
800.004,,512.460,240.951,
866.671,,512.693,240.911,
933.337,,512.042,240.988,
999.998,,512.173,240.960,
1066.670,,512.029,240.948,
1133.332,,512.544,240.775,
1200.003,,512.254,240.760,
1266.665,,512.166,240.967,
1333.333,,511.930,240.864,
1399.999,,512.424,240.653,
1466.668,,512.143,240.676,
1533.334,,511.761,240.268,
1600.004,,511.533,240.197,
1666.670,,510.934,239.894,
1733.332,,511.825,240.047,
1800.004,,510.809,239.871,
1866.670,,511.074,239.646,
1933.336,,510.250,239.511,
2000.001,,510.620,239.548,
2066.666,,510.649,239.342,
2133.334,,510.654,239.293,
2200.002,,510.320,239.268,
2266.665,,509.971,239.001,
2333.332,,510.247,239.125,
2400.000,,510.192,238.970,
2466.664,,510.440,238.983,
2533.333,,509.728,238.896,
2600.004,,509.880,238.741,
2666.667,,509.817,238.826,
2733.333,,509.906,238.700,
2800.001,,509.644,238.691,
2866.670,,509.335,238.587,
2933.331,,509.358,238.347,
3000.004,,509.165,238.372,
3066.668,,509.165,238.283,
3133.335,,509.121,238.235,
3199.997,,508.578,238.200,
3266.665,,509.039,238.279,
3333.337,,509.352,238.271,
3399.999,,509.540,238.142,
3466.670,,508.933,238.264,
3533.335,,508.930,238.350,
3599.999,,508.934,238.186,
3666.670,,509.020,238.310,
3733.332,,508.738,238.131,
3800.000,,508.799,238.130,
3866.670,,508.657,238.133,
3933.332,,508.693,238.072,
4000.003,,508.664,238.290,
4066.666,,508.894,238.085,
4133.332,,508.538,238.224,
4200.003,,508.509,238.165,
4266.667,,508.691,237.999,
4333.335,,508.376,237.951,
4399.998,,509.134,237.964,
4466.668,,508.327,238.098,
4533.333,,508.758,238.070,
4600.001,,508.269,237.916,
4666.669,,508.240,237.915,
4733.334,,508.083,237.905,
4799.999,,508.212,237.925,
4866.664,,508.189,237.870,
4933.334,,508.032,237.937,
5000.002,,508.135,237.818,
5066.667,,508.046,237.582,
5133.336,,507.933,237.758,
5200.003,,507.929,237.760,
5266.669,,507.761,237.549,
5333.336,,507.974,237.631,
5400.002,,507.726,237.665,
5466.669,,508.005,237.560,
5533.333,,507.821,237.374,
5600.003,,507.644,237.461,
5666.665,,507.439,237.491,
5733.332,,507.542,237.409,
5799.999,,507.365,237.255,
5866.665,,507.418,237.334,
5933.332,,507.292,237.301,
6000.000,,507.499,237.299,
6066.666,,507.153,237.169,
6133.337,,507.260,237.032,
6199.999,,507.095,237.157,
6266.666,,507.022,237.120,
6333.337,,507.122,237.122,
6399.999,,507.322,237.116,
6466.670,,507.271,236.943,
6533.337,,506.775,237.051,
6600.001,,507.063,237.109,
6666.669,,506.864,237.047,
6733.333,,506.929,237.004,
6799.998,,506.829,237.059,
6866.669,,506.416,236.849,
6933.335,,506.174,236.415,
7000.001,,506.407,236.545,
7066.668,,506.242,236.447,
7133.334,,506.052,235.967,
7200.001,,505.662,235.995,
7266.664,,505.825,236.236,
7333.331,,506.098,236.482,
7399.998,,506.495,236.637,
7466.667,,506.796,237.623,
7533.335,,507.692,238.262,
7600.002,,507.907,238.273,
7666.670,,508.169,238.354,
7733.336,,508.079,238.751,
7800.002,,508.524,239.263,
7866.671,,509.191,239.665,
7933.332,,509.749,240.338,
7999.999,,510.306,240.749,
8066.668,,510.563,240.973,
8133.337,,510.665,241.369,
8200.000,,511.223,241.600,
8266.670,,510.994,241.307,
8333.335,,510.502,240.546,
8399.998,,509.601,239.729,
8466.665,,508.811,238.874,
8533.331,,507.714,237.635,
8600.000,,506.446,236.559,
8666.668,,505.296,235.358,
8733.334,,504.406,234.501,
8800.001,,503.298,233.674,
8866.667,,502.495,232.713,
8933.335,,501.876,232.260,
8999.999,,501.371,232.000,
9066.664,,501.550,231.891,
9133.331,,500.985,231.695,
9199.999,,500.928,231.496,
9266.668,,500.984,231.543,
9333.338,,500.812,231.348,
9399.998,,500.869,231.479,
9466.670,,500.859,231.350,
9533.331,,500.513,231.134,
9600.001,,500.391,231.199,
9666.667,,500.575,231.454,
9733.333,,500.529,231.371,
9799.998,,500.450,231.313,
9866.667,,500.505,231.225,
9933.336,,500.650,231.434,
9999.998,,500.456,231.212,
10066.665,,500.328,231.177,
10133.334,,500.303,231.113,
10199.999,,500.631,231.168,
10266.668,,500.441,231.203,
10333.336,,500.518,231.210,
10400.002,,500.338,231.003,
10466.668,,500.371,231.090,
10533.333,,500.385,231.050,
10599.999,,500.220,230.970,
10666.666,,500.148,230.922,
10733.337,,500.132,231.082,
10800.003,,499.945,230.854,
10866.664,,500.156,230.990,
10933.333,,500.091,230.998,
11000.003,,500.282,230.963,
11066.665,,500.180,231.012,
11133.335,,500.657,230.899,
11200.001,,500.184,230.972,
11266.669,,500.132,230.945,
11333.337,,500.119,230.989,
11400.004,,499.999,230.828,
11466.670,,499.954,230.982,
11533.335,,499.963,230.982,
11599.999,,499.935,230.775,
11666.666,,499.961,230.803,
11733.332,,499.946,230.795,
11799.998,,499.876,230.695,
11866.665,,499.805,230.772,
11933.335,,499.659,230.647,
11999.999,,499.961,230.668,
12066.664,,499.722,230.770,
12133.333,,499.822,230.544,
12200.004,,499.775,230.610,
12266.671,,499.765,230.583,
12333.332,,499.608,230.528,
12400.004,,499.746,230.471,
12466.665,,499.788,230.586,
12533.331,,499.967,230.517,
12600.003,,499.635,230.447,
12666.667,,499.827,230.480,
12733.337,,499.371,230.409,
12800.001,,499.547,230.197,
12866.664,,499.581,230.326,
12933.337,,499.485,230.321,
12999.999,,499.357,230.223,
13066.665,,499.499,230.141,
13133.336,,499.574,230.425,
13200.002,,499.564,230.148,
13266.664,,499.287,230.136,
13333.336,,499.433,230.178,
13399.999,,499.240,230.338,
13466.668,,499.050,230.252,
13533.332,,498.905,230.287,
13600.004,,499.208,230.102,
13666.668,,499.389,230.140,
13733.334,,499.350,230.182,
13800.002,,499.150,230.214,
13866.667,,499.074,230.102,
13933.337,,499.307,230.152,
14000.001,,499.350,230.100,
14066.666,,498.934,229.948,
14133.333,Input1*2*0,498.981,230.063,
14200.003,Input1*2*1,499.254,230.049,
14266.666,,499.619,230.086,
14333.332,,499.125,229.863,
14400.000,,498.989,229.959,
14466.665,,498.980,229.891,
14533.332,,498.841,229.901,
14600.003,,499.048,229.890,
14666.665,,498.986,229.883,
14733.332,,499.260,229.999,
14800.004,,498.886,229.862,
14866.665,,498.589,229.973,
14933.332,,498.746,229.839,
15000.002,,498.839,229.855,
15066.670,,498.402,229.904,
15133.338,,498.398,229.967,
15200.000,,498.604,229.805,
15266.667,,498.722,229.790,
15333.337,,498.444,229.811,
15400.003,,498.202,229.655,
15466.665,,498.581,229.763,
15533.334,,498.475,229.958,
15600.002,,498.416,229.838,
15666.667,,498.398,229.796,
15733.331,,498.122,229.784,
15800.003,,497.992,229.829,
15866.670,,497.853,229.737,
15933.335,,498.437,229.631,
15999.977,,497.783,229.635,
16066.624,,497.856,229.650,
16133.268,,497.709,229.619,
16199.918,,497.776,229.769,
16266.562,,497.728,229.837,
16333.208,,498.141,229.767,
16399.850,,497.864,229.938,
16466.491,,497.944,229.866,
16533.137,,497.895,229.859,
16599.779,,497.836,229.909,
16666.428,,498.007,229.873,
16733.070,,497.922,230.030,
16799.711,,497.997,230.011,
16866.354,,497.966,229.863,
16933.001,,498.044,229.962,
16999.642,,498.046,230.093,
17066.288,,497.979,230.155,
17132.925,,498.364,230.504,
17199.574,,498.861,231.021,
17266.216,,499.435,231.827,
17332.856,,499.996,232.608,
17399.495,,500.898,233.338,
17466.142,,501.904,234.148,
17532.777,,502.351,234.943,
17599.424,,503.267,235.555,
17666.065,,503.772,235.997,
17732.707,,504.415,236.629,
17799.348,,504.924,237.183,
17865.985,,505.422,237.474,
17932.625,,505.695,237.793,
17999.270,,505.872,237.809,
18065.909,,506.268,238.073,
18132.550,,506.183,238.272,
18199.188,,506.343,238.646,
18265.825,,506.819,238.996,
18332.464,,507.027,239.466,
18399.104,,507.322,239.797,
18465.746,,507.725,240.111,
18532.387,,508.084,240.413,
18599.023,,508.529,240.768,
18665.663,,508.770,241.257,
18732.299,,509.144,241.531,
18798.936,,509.289,241.572,
18865.578,,509.697,241.821,
18932.217,,509.623,241.810,
18998.850,,509.232,241.174,
19065.489,,508.386,240.450,
19132.127,,507.951,239.676,
19198.767,,506.900,238.596,
19265.404,,505.704,237.350,
19332.037,,504.638,236.263,
19398.674,,503.197,234.827,
19465.312,,502.030,233.705,
19531.948,,500.865,232.941,
19598.586,,500.035,232.058,
19665.222,,499.476,231.355,
19731.858,,498.744,230.980,
19798.492,,498.526,230.732,
19865.123,,498.179,230.610,
19931.762,,497.790,230.476,
19998.396,,497.809,230.409,
20065.029,,497.712,230.213,
20131.669,,497.814,230.462,
20198.305,,497.811,230.435,
20264.939,,498.132,230.626,
20331.570,,498.407,230.795,
20398.206,,498.710,231.605,
20464.838,,499.430,232.282,
20531.470,,500.256,233.285,
20598.105,,501.138,234.059,
20664.738,,502.115,234.905,
20731.372,,502.865,235.935,
20798.006,,503.801,236.979,
20864.636,,505.502,238.322,
20931.267,,506.198,238.869,
20997.900,,506.840,239.205,
21064.532,,506.642,239.045,
21131.164,,506.528,238.418,
21197.799,,505.360,237.319,
21264.430,,504.510,236.401,
21331.061,,503.708,235.673,
21397.695,,502.642,234.888,
21464.326,,501.655,233.908,
21530.959,,500.726,232.868,
21597.590,,499.605,231.840,
21664.216,,498.875,231.025,
21730.848,,498.207,230.840,
21797.475,,498.054,230.596,
21864.112,,498.068,230.562,
21930.741,,498.084,230.552,
21997.366,,497.860,230.583,
22063.998,,497.879,230.592,
22130.628,,497.655,230.300,
22197.256,,497.887,230.528,
22263.887,,497.943,230.755,
22330.513,,497.963,230.664,
22397.145,,498.153,231.046,
22463.770,,498.276,231.366,
22530.400,,498.669,231.592,
22597.033,,498.926,231.919,
22663.659,,499.372,232.276,
22730.284,,499.882,232.643,
22796.915,,500.417,233.269,
22863.538,,500.911,233.644,
22930.167,,501.048,233.960,
22996.797,,501.312,234.373,
23063.423,,501.853,234.536,
23130.049,,501.600,234.472,
23196.677,,501.897,234.432,
23263.305,,501.396,233.765,
23329.931,,500.602,232.902,
23396.556,,499.717,231.994,
23463.184,,498.958,231.367,
23529.805,,498.038,230.376,
23596.430,,497.015,229.158,
23663.059,,495.398,228.060,
23729.680,,494.879,227.331,
23796.310,,494.168,227.037,
23862.937,,493.861,226.706,
23929.562,,493.703,226.504,
23996.213,,493.379,226.499,
24062.877,,493.658,226.569,
24129.535,,493.906,226.301,
24196.188,,493.606,226.303,
24262.847,,493.141,226.286,
24329.508,,493.167,226.140,
24396.167,,493.603,226.185,
24462.822,,493.908,225.962,
24529.480,,490.960,225.273,
24596.138,,490.399,224.821,
24662.796,,489.387,224.469,
24729.453,,489.116,223.990,
24796.112,,489.179,223.808,
24862.771,,489.348,223.470,
24929.429,,489.433,223.514,
24996.083,,489.709,223.612,
25062.743,,489.218,223.649,
25129.402,,488.771,223.435,
25196.061,,488.033,223.518,
25262.720,,488.507,223.718,
25329.378,,488.465,223.776,
25396.036,,489.082,223.786,
25462.691,,488.695,223.992,
25529.354,,488.887,224.043,
25596.010,,488.918,224.102,
25662.665,,489.171,224.063,
25729.324,,489.153,224.269,
25795.987,,489.084,224.247,
25862.641,,489.330,224.288,
25929.304,,489.349,224.357,
25995.962,,489.452,224.161,
26062.618,,489.236,224.132,
26129.278,,488.984,224.302,
26195.931,,488.986,224.100,
26262.595,,489.392,224.534,
26329.246,,489.772,224.822,
26395.909,,489.780,225.210,
26462.566,,489.722,225.085,
26529.225,,489.218,225.231,
26595.880,,490.018,225.434,
26662.542,,489.983,225.511,
26729.201,,490.659,225.690,
26795.860,,490.247,225.846,
26862.517,,491.399,225.865,
26929.172,,490.919,225.980,
26995.831,,491.294,225.981,
27062.488,,490.827,225.884,
27129.153,,491.198,225.711,
27195.811,,490.331,225.601,
27262.468,,491.509,225.391,
27329.122,,491.679,225.287,
27395.782,,491.039,225.393,
27462.441,,490.743,225.335,
27529.102,,490.102,225.167,
27595.757,,489.949,225.329,
27662.420,,490.269,225.320,
27729.073,,490.281,225.874,
27795.734,,491.049,226.388,
27862.392,,493.057,226.719,
27929.054,,492.788,225.835,
27995.710,,491.202,225.579,
28062.370,,492.502,225.602,
28129.025,,491.734,225.556,
28195.688,,492.390,225.577,
28262.346,Input1*2*0,492.595,225.460,
28329.003,,492.725,225.600,
28395.664,,492.713,225.518,
28462.321,,493.149,225.558,
28528.977,,492.686,225.785,
28595.638,,493.118,225.916,
28662.292,,493.111,225.838,
28728.952,Input1*2*1,493.271,225.688,
28795.615,,493.286,225.671,
28862.273,,493.111,225.392,
28928.931,,493.197,225.393,
28995.589,,492.569,225.259,
29062.247,,492.747,225.259,
29128.904,,492.416,225.256,
29195.564,,492.346,225.035,
29262.225,,492.157,224.987,
29328.880,,492.369,225.047,
29395.540,,492.237,224.946,
29462.198,,491.962,224.749,
29528.860,,491.838,224.725,
29595.520,,491.873,224.752,
29662.175,,491.341,224.709,
29728.835,,491.651,224.448,
29795.491,,491.672,224.657,
29862.150,,491.989,224.464,
29928.811,,491.823,224.586,
29995.469,,492.773,224.568,
30062.127,,491.712,224.422,
30128.789,,492.062,224.373,
30195.449,,491.709,224.471,
30262.104,,491.932,224.427,
30328.767,,491.628,224.385,
30395.423,,491.851,224.385,
30462.079,,491.580,224.470,
30528.739,,492.561,224.507,
30595.401,,491.855,224.504,
30662.059,,492.360,224.486,
30728.719,,492.290,224.541,
30795.379,,492.379,224.555,
30862.035,,492.629,224.778,
30928.696,,492.092,224.645,
30995.352,,492.726,224.778,
31062.010,,492.336,224.771,
31128.668,,492.701,224.727,
31195.331,,493.104,224.846,
31261.986,,492.148,224.952,
31328.648,,491.705,225.209,
31395.306,,492.145,225.215,
31461.968,,492.322,225.489,
31528.627,,492.016,225.428,
31595.283,,492.090,225.508,
31661.946,,491.521,225.634,
31728.599,,492.761,225.596,
31795.260,,491.901,225.703,
31861.920,,491.136,225.707,
31928.578,,491.209,225.848,
31995.235,,492.362,225.931,
32061.893,,491.222,226.014,
32128.557,,491.351,226.049,
32195.214,,491.541,226.024,
32261.873,,491.704,226.201,
32328.527,,491.569,226.128,
32395.185,,490.802,226.189,
32461.848,,490.391,226.112,
32528.501,,490.977,226.201,
32595.159,,490.848,225.882,
32661.818,,491.399,226.090,
32728.478,,491.004,226.031,
32795.140,,492.110,226.050,
32861.793,,492.223,226.054,
32928.456,,492.176,226.077,
32995.113,,491.915,226.140,
33061.772,,491.845,226.236,
33128.432,,491.391,226.281,
33195.089,,491.795,226.407,
33261.745,,491.693,226.576,
33328.404,,491.511,226.340,
33395.062,,491.657,226.126,
33461.718,,491.950,226.310,
33528.377,,491.507,226.017,
33595.037,,491.440,225.918,
33661.693,,490.971,225.986,
33728.356,,491.339,225.802,
33795.010,,490.768,225.560,
33861.668,,490.787,225.399,
33928.330,,490.450,224.919,
33994.992,,489.858,224.640,
34061.650,,489.603,224.539,
34128.307,,489.994,224.484,
34194.966,,489.821,224.262,
34261.619,,489.337,224.133,
34328.277,,489.087,224.122,
34394.938,,489.031,223.970,
34461.594,,489.390,223.962,
34528.254,,489.654,223.817,
34594.917,,489.322,223.871,
34661.571,,489.716,223.981,
34728.232,,489.771,224.054,
34794.888,,489.748,224.080,
34861.548,,489.841,223.867,
34928.210,,489.393,223.757,
34994.863,,488.973,223.777,
35061.527,,489.568,223.786,
35128.180,,488.855,223.750,
35194.839,,489.117,223.692,
35261.500,,489.900,223.775,
35328.155,,489.597,223.922,
35394.814,,489.846,223.963,
35461.474,,489.790,223.837,
35528.135,,490.073,223.392,
35594.789,,489.053,223.398,
35661.451,,488.846,223.124,
35728.109,,490.751,222.931,
35794.768,,490.329,223.081,
35861.425,,489.884,223.461,
35928.088,,490.838,223.614,
35994.744,,490.892,223.613,
36061.406,,491.322,223.812,
36128.060,,491.809,223.905,
36194.723,,492.051,223.942,
36261.381,,491.451,224.055,
36328.037,,492.117,224.431,
36394.698,,492.833,224.712,
36461.352,,491.865,224.571,
36528.011,,491.552,224.715,
36594.673,,492.471,224.837,
36661.328,,495.305,224.964,
36727.988,,495.299,224.834,
36794.649,,492.741,224.784,
36861.307,,492.273,224.815,
36927.964,,492.642,224.648,
36994.628,,492.239,224.706,
37061.280,,492.648,224.451,
37127.941,,492.193,224.473,
37194.597,,492.735,224.354,
37261.258,,492.855,224.319,
37327.915,,493.731,224.016,
37394.579,,491.971,223.924,
37461.233,,491.244,223.661,
37527.896,,490.695,223.815,
37594.550,,491.696,223.781,
37661.210,,490.702,223.287,
37727.873,,490.226,222.968,
37794.527,,489.267,222.893,
37861.189,,489.678,222.920,
37927.846,,489.773,223.351,
37994.506,,490.307,223.578,
38061.163,,490.812,223.408,
38127.821,,490.789,223.584,
38194.484,,490.931,223.546,
38261.140,,490.212,223.378,
38327.803,,490.685,223.259,
38394.456,,489.866,223.201,
38461.117,,489.941,223.000,
38527.774,,489.860,223.089,
38594.438,,490.706,223.004,
38661.094,,490.348,223.144,
38727.756,,490.523,223.271,
38794.411,,489.031,223.305,
38861.076,,490.041,223.380,
38927.729,,490.493,223.469,
38994.392,,490.060,223.256,
39061.048,,489.496,223.039,
39127.707,,490.269,222.983,
39194.368,,490.161,222.945,
39261.027,,490.527,223.071,
39327.681,,490.172,222.992,
39394.340,,489.772,222.923,
39460.999,,489.871,223.003,
39527.660,,490.671,222.832,
39594.322,,490.444,222.996,
39660.976,,490.969,223.252,
39727.638,,490.981,223.375,
39794.297,,491.488,223.366,
39860.955,,491.440,223.299,
39927.615,,491.401,223.392,
39994.276,,490.965,223.459,
40060.932,,490.908,223.574,
40127.588,,490.994,223.534,
40194.247,,491.065,223.693,
40260.909,,491.517,223.866,
40327.568,,491.182,223.773,
40394.223,,491.393,223.891,
40460.882,,492.043,223.910,
40527.538,,492.937,223.937,
40594.199,,492.276,223.893,
40660.856,,492.502,223.969,
40727.515,,490.940,224.012,
40794.173,,492.453,223.929,
40860.833,,491.669,223.643,
40927.493,,492.844,223.526,
40994.147,,491.051,223.536,
41060.806,,492.176,223.779,
41127.465,,491.555,224.037,
41194.126,,493.132,224.041,
41260.786,,491.664,223.932,
41327.439,,492.656,223.891,
41394.104,,491.835,223.921,
41460.760,,492.738,223.839,
41527.417,,492.156,223.772,
41594.079,,492.437,223.996,
41660.735,,493.318,224.098,
41727.394,,492.126,224.114,
41794.051,,493.571,223.994,
41860.710,,493.413,223.862,
41927.371,,493.598,223.985,
41994.025,,491.770,223.951,
42060.687,,492.877,223.987,
42127.342,,491.485,223.911,
42194.000,,493.607,223.819,
42260.663,,491.366,223.818,
42327.321,,492.625,223.820,
42393.976,,491.326,223.980,
42460.638,,492.743,224.320,
42527.294,,491.662,224.442,
42593.953,,492.315,224.872,
42660.616,,491.253,224.831,
42727.269,,492.463,224.780,
42793.931,,492.009,225.036,
42860.587,,493.060,224.881,
42927.248,,492.593,224.548,
42993.893,,492.966,224.360,
43060.566,,492.457,224.837,
43127.220,,492.423,224.981,
43193.882,,492.820,224.922,
43260.542,,492.182,224.822,
43327.201,,491.989,224.775,
43393.856,,492.657,224.860,
43460.514,,493.633,224.759,
43527.178,,493.160,224.930,
43593.836,,493.501,224.698,
43660.494,,492.677,224.825,
43727.153,,492.246,224.865,
43793.810,,492.367,224.956,
43860.467,,492.909,224.835,
43927.125,,492.272,224.820,
43993.786,,492.331,224.834,
44060.446,,492.498,224.941,
44127.104,,492.477,224.332,
44193.759,,491.711,224.234,
44260.422,,491.964,224.666,
44327.077,,491.705,224.857,
44393.736,,492.087,224.676,
44460.398,,492.269,224.535,
44527.058,,491.689,224.668,
44593.717,,491.591,224.615,
44660.370,,491.466,224.589,
44727.030,,492.004,224.694,
44793.689,,492.190,224.620,
44860.348,,491.948,224.551,
44927.007,,491.627,224.629,
44993.664,,491.805,224.525,
45060.326,,492.470,224.566,
45126.983,,492.049,224.656,
45193.642,,491.641,224.385,
45260.305,,491.576,224.224,
45326.962,,491.724,223.869,
45393.618,,491.469,223.629,
45460.280,,491.087,223.597,
45526.939,,491.278,223.567,
45593.597,,491.075,223.662,
45660.256,,490.501,223.554,
45726.914,,491.108,223.638,
45793.570,,491.210,223.749,
45860.233,,491.166,223.783,
45926.891,,491.149,223.817,
45993.545,,491.130,223.547,
46060.211,,491.563,223.573,
46126.867,,490.532,223.364,
46193.527,,489.399,222.841,
46260.186,,489.450,222.976,
46326.840,,490.121,222.827,
46393.505,,489.684,222.495,
46460.158,,490.251,222.417,
46526.819,,489.428,222.366,
46593.478,,490.134,222.460,
46660.134,,490.096,222.237,
46726.798,,490.304,222.284,
46793.452,,489.401,221.903,
46860.110,,489.622,222.007,
46926.772,,488.878,221.852,
46993.432,,489.513,221.661,
47060.088,,488.979,221.345,
47126.747,,488.774,221.318,
47193.407,,488.639,220.925,
47260.067,,488.769,220.641,
47326.724,,488.239,220.428,
47393.386,,488.711,220.597,
47460.042,,488.069,221.032,
47526.700,,489.282,221.571,
47593.362,,489.499,222.211,
47660.019,,490.191,222.399,
47726.683,,490.562,223.200,
47793.342,,491.296,223.954,
47860.001,,492.007,224.602,
47926.655,,492.481,225.384,
47993.311,,493.402,226.021,
48059.974,,494.180,226.568,
48126.629,,494.431,227.118,
48193.288,,494.989,227.396,
48259.942,,495.508,227.491,
48326.603,,495.583,227.962,
48393.259,,495.779,228.088,
48459.912,,495.777,228.313,
48526.575,,495.864,228.265,
48593.231,,495.883,227.748,
48659.886,,495.180,227.420,
48726.543,,495.230,227.199,
48793.203,,494.788,226.678,
48859.860,,494.345,226.429,
48926.517,,493.827,226.153,
48993.173,,494.385,226.710,
49059.833,,494.569,227.600,
49126.493,,495.984,228.551,
49193.149,,496.437,229.657,
49259.802,,498.613,231.399,
49326.463,,500.130,233.660,
49393.122,,502.347,235.387,
49459.780,,504.029,237.577,
49526.437,,505.811,238.004,
49593.092,,505.271,237.073,
49659.752,,505.084,236.909,
49726.405,,504.443,236.693,
49793.063,,504.508,236.342,
49859.722,,503.930,236.319,
49926.377,,504.212,236.328,
49993.038,,504.245,236.349,
