TimeStamp,Events,CH1-410,CH1-470,ToneStart,PelletGrab
0.0,,297.034,354.889,0,0
66.661,,296.631,354.646,0,0
133.328,,296.36,354.372,0,0
199.997,,296.086,353.968,0,0
266.662,,295.934,353.51,0,0
333.329,,295.389,352.81,0,0
400.0,,295.23,352.445,0,0
466.667,,294.817,352.124,0,0
533.329,,294.378,351.743,0,0
600.001,,294.148,351.522,0,0
666.666,,294.058,351.31,0,0
733.332,,293.766,351.066,0,0
800.0,,293.592,350.873,0,0
866.665,,293.21,350.854,0,0
933.332,,293.359,350.524,0,0
999.999,,293.103,350.3,0,0
1066.663,,292.925,350.2,0,0
1133.333,,292.604,349.788,0,0
1199.996,,292.666,349.531,0,0
1266.662,,292.391,349.426,0,0
1333.334,,292.348,349.257,0,0
1399.995,,292.056,349.011,0,0
1466.664,,291.855,348.979,0,0
1533.332,,291.737,348.659,0,0
1599.998,,291.742,348.59,0,0
1666.666,,291.568,348.584,0,0
1733.331,,291.485,348.679,0,0
1799.995,,291.468,348.501,0,0
1866.664,,291.491,348.749,0,0
1933.332,,291.621,348.484,0,0
2000.0,,291.404,348.329,0,0
2066.665,,291.447,348.433,0,0
2133.328,,291.374,348.324,0,0
2199.995,,291.433,348.42,0,0
2266.661,,291.305,348.135,0,0
2333.329,,291.183,347.947,0,0
2399.994,,291.152,348.005,0,0
2466.668,,291.079,347.981,0,0
2533.333,,291.043,348.001,0,0
2599.998,,290.92,347.732,0,0
2666.663,,290.917,347.903,0,0
2733.329,,290.611,347.63,0,0
2800.001,,290.659,347.558,0,0
2866.662,,290.631,347.599,0,0
2933.334,,290.685,347.423,0,0
3000.0,,290.514,347.678,0,0
3066.662,,290.497,347.533,0,0
3133.333,,290.419,347.295,0,0
3199.997,,290.538,347.136,0,0
3266.662,,290.395,347.078,0,0
3333.333,,290.271,347.26,0,0
3399.995,,290.327,347.187,0,0
3466.667,,290.132,346.98,0,0
3533.329,,289.991,346.942,0,0
3600.0,,289.86,347.082,0,0
3666.664,,289.878,346.821,0,0
3733.329,,289.97,346.993,0,0
3799.997,,289.856,346.795,0,0
3866.664,,289.766,346.669,0,0
3933.329,,289.771,346.744,0,0
3999.995,,289.738,346.502,0,0
4066.667,,289.791,346.611,0,0
4133.333,,289.759,346.539,0,0
4199.997,,289.629,346.466,0,0
4266.666,,289.374,346.271,0,0
4333.333,,289.456,346.192,0,0
4399.999,,289.409,346.449,0,0
4466.661,,289.389,346.097,0,0
4533.33,,289.348,346.312,0,0
4600.0,,289.193,346.173,0,0
4666.666,,289.285,346.292,0,0
4733.33,,289.206,346.134,0,0
4800.0,,289.112,346.145,0,0
4866.663,,288.995,346.214,0,0
4933.332,,289.158,346.008,0,0
5000.001,,288.919,345.908,0,0
5066.667,,288.967,345.993,0,0
5133.328,,288.901,345.859,0,0
5200.0,,289.036,345.738,0,0
5266.664,,288.927,345.751,0,0
5333.332,,288.865,345.671,0,0
5399.995,,288.764,345.682,0,0
5466.668,,288.79,345.721,0,0
5533.334,,288.752,345.739,0,0
5599.997,,288.568,345.643,0,0
5666.667,,288.482,345.5,0,0
5733.334,,288.549,345.626,0,0
5800.0,,288.565,345.686,0,0
5866.667,,288.546,345.45,0,0
5933.332,,288.392,345.346,0,0
5999.995,,288.38,345.4,0,0
6066.668,,288.485,345.47,0,0
6133.332,,288.405,345.318,0,0
6199.996,,288.308,345.435,0,0
6266.662,,288.298,345.329,0,0
6333.329,,288.275,345.144,0,0
6399.995,,288.206,344.985,0,0
6466.667,,288.064,345.08,0,0
6533.333,,288.206,345.175,0,0
6599.997,,287.882,345.087,0,0
6666.667,,287.985,345.039,0,0
6733.333,,287.916,345.107,0,0
6799.995,,287.85,344.945,0,0
6866.666,,287.888,344.96,0,0
6933.33,,287.77,344.974,0,0
7000.001,,287.705,344.782,0,0
7066.662,,287.861,345.103,0,0
7133.334,,287.831,344.939,0,0
7200.001,,287.803,344.819,0,0
7266.662,,287.927,344.715,0,0
7333.333,,287.586,344.763,0,0
7399.996,,287.733,344.822,0,0
7466.667,,287.749,344.644,0,0
7533.334,,287.52,344.47,0,0
7599.997,,287.641,344.554,0,0
7666.665,,287.68,344.565,0,0
7733.328,,287.646,344.725,0,0
7799.995,,287.407,344.651,0,0
7866.663,,287.633,344.413,0,0
7933.334,,287.448,344.322,0,0
8000.0,,287.322,344.392,0,0
8066.665,,287.326,344.352,0,0
8133.333,,287.315,344.265,0,0
8199.998,,287.271,344.46,0,0
8266.666,,287.264,344.157,0,0
8333.334,,287.305,344.258,0,0
8400.0,,287.297,344.362,0,0
8466.667,,287.235,344.219,0,0
8533.33,,287.198,344.263,0,0
8600.001,,287.106,344.199,0,0
8666.662,,287.161,344.238,0,0
8733.334,,287.11,344.104,0,0
8800.0,,286.955,344.044,0,0
8866.661,,287.197,344.123,0,0
8933.332,,286.921,344.033,0,0
8999.995,,287.05,343.96,0,0
9066.664,,286.898,344.129,0,0
9133.333,,286.862,344.179,0,0
9199.996,,286.875,343.886,0,0
9266.663,,286.873,344.151,0,0
9333.329,,286.745,343.837,0,0
9399.999,,286.712,343.828,0,0
9466.663,,286.688,344.023,0,0
9533.331,,286.723,343.767,0,0
9600.0,,286.797,343.79,0,0
9666.666,,286.644,343.776,0,0
9733.329,,286.712,343.821,0,0
9800.001,,286.672,343.714,0,0
9866.664,,286.595,343.642,0,0
9933.331,,286.52,343.806,0,0
9999.995,,286.531,343.814,0,0
10066.662,,286.506,343.603,0,0
10133.332,,286.516,343.603,0,0
10199.996,,286.466,343.676,0,0
10266.667,,286.41,343.518,0,0
10333.329,,286.443,343.61,0,0
10399.999,,286.526,343.481,0,0
10466.665,,286.276,343.438,0,0
10533.33,,286.453,343.429,0,0
10599.996,,286.328,343.396,0,0
10666.663,,286.182,343.26,0,0
10733.329,,286.33,343.611,0,0
10800.0,,286.086,343.316,0,0
10866.666,,286.185,343.279,0,0
10933.333,,286.068,343.241,0,0
10999.999,,286.116,343.246,0,0
11066.665,,286.116,343.519,0,0
11133.33,,286.251,343.284,0,0
11199.997,,286.12,343.36,0,0
11266.663,,286.059,343.062,0,0
11333.334,,286.153,343.228,0,0
11400.0,,285.938,343.059,0,0
11466.666,,285.908,343.134,0,0
11533.331,,286.037,343.089,0,0
11600.001,,286.222,342.898,0,0
11666.666,,285.958,343.221,0,0
11733.328,,285.816,343.004,0,0
11799.995,,285.813,342.957,0,0
11866.666,,285.718,342.906,0,0
11933.333,,285.975,343.031,0,0
12000.001,,285.635,342.998,0,0
12066.666,,285.803,342.949,0,0
12133.33,,285.76,342.943,0,0
12199.996,,285.542,342.894,0,0
12266.662,,285.58,342.918,0,0
12333.328,,285.555,342.738,0,0
12399.999,,285.695,342.84,0,0
12466.667,,285.7,343.103,0,0
12533.329,,285.736,342.846,0,0
12599.995,,285.721,342.774,0,0
12666.667,,285.528,342.737,0,0
12733.332,,285.41,342.921,0,0
12799.996,,285.472,342.722,0,0
12866.666,,285.366,342.898,0,0
12933.332,,285.524,342.759,0,0
12999.998,,285.517,342.721,0,0
13066.664,,285.525,342.699,0,0
13133.334,,285.249,342.805,0,0
13200.0,,285.302,342.471,0,0
13266.662,,285.382,342.583,0,0
13333.332,,285.354,342.377,0,0
13399.995,,285.361,342.588,0,0
13466.664,,285.295,342.515,0,0
13533.328,,285.23,342.577,0,0
13599.995,,285.15,342.473,0,0
13666.663,,285.218,342.526,0,0
13733.334,,285.274,342.498,0,0
13800.0,,285.252,342.493,0,0
13866.665,,285.086,342.412,0,0
13933.333,,285.125,342.476,0,0
14000.001,,285.19,342.606,0,0
14066.667,,285.11,342.476,0,0
14133.334,,285.073,342.508,0,0
14199.996,,284.94,342.387,0,0
14266.663,,285.064,342.445,0,0
14333.33,,285.117,342.495,0,0
14399.996,,285.066,342.388,0,0
14466.663,,284.943,342.298,0,0
14533.33,,284.81,342.262,0,0
14600.0,,284.991,342.256,0,0
14666.665,,284.84,342.145,0,0
14733.333,,284.892,342.171,0,0
14800.0,,284.831,342.44,0,0
14866.665,,284.889,342.057,0,0
14933.33,,284.651,342.271,0,0
14999.997,,284.872,342.213,0,0
15066.664,,284.858,342.21,0,0
15133.33,,284.891,342.12,0,0
15200.001,,284.856,342.142,0,0
15266.665,,284.945,342.005,0,0
15333.33,,284.834,342.045,0,0
15399.996,,284.707,342.085,0,0
15466.662,,284.618,342.023,0,0
15533.333,,284.519,342.037,0,0
15599.996,,284.504,342.243,0,0
15666.661,,284.836,342.118,0,0
15733.329,,284.777,342.081,0,0
15800.0,,284.696,342.054,0,0
15866.666,,284.576,342.122,0,0
15933.329,,284.608,341.939,0,0
15999.988,,284.471,341.93,0,0
16066.638,,284.657,341.835,0,0
16133.287,,284.466,341.904,0,0
16199.941,,284.621,341.941,0,0
16266.593,,284.56,342.053,0,0
16333.251,,284.554,342.094,0,0
16399.898,,284.595,342.052,0,0
16466.556,,284.412,341.846,0,0
16533.202,,284.5,341.951,0,0
16599.857,,284.448,341.979,0,0
16666.511,,284.606,341.73,0,0
16733.158,,284.558,341.751,0,0
16799.811,,284.59,341.883,0,0
16866.467,,284.497,341.81,0,0
16933.118,,284.385,341.797,0,0
16999.763,,284.34,341.801,0,0
17066.419,,284.442,341.669,0,0
17133.072,,284.29,341.759,0,0
17199.723,,284.155,341.864,0,0
17266.369,,284.252,341.736,0,0
17333.023,,284.277,341.541,0,0
17399.674,,284.156,341.617,0,0
17466.325,,283.999,341.395,0,0
17532.971,,283.865,341.526,0,0
17599.624,,283.881,341.392,0,0
17666.274,,284.039,341.68,0,0
17732.924,,283.88,341.454,0,0
17799.576,,283.772,341.256,0,0
17866.224,,283.565,340.98,0,0
17932.876,,282.689,339.909,0,0
17999.52,,282.184,339.742,0,0
18066.17,,282.313,339.751,0,0
18132.82,,282.243,339.728,0,0
18199.471,,282.114,339.598,0,0
18266.123,,282.011,339.614,0,0
18332.772,,282.125,339.552,0,0
18399.416,,281.99,339.499,0,0
18466.067,,281.932,339.241,0,0
18532.719,,281.988,339.374,0,0
18599.364,,281.751,339.224,0,0
18666.014,,281.791,339.409,0,0
18732.665,,282.041,339.471,0,0
18799.308,,281.901,339.259,0,0
18865.958,,281.902,339.702,0,0
18932.606,,282.022,339.487,0,0
18999.257,,281.806,339.677,0,0
19065.904,,282.024,339.466,0,0
19132.55,,281.952,339.403,0,0
19199.2,,281.917,339.446,0,0
19265.847,,281.958,339.357,0,0
19332.493,,281.922,339.493,0,0
19399.14,,281.794,339.31,0,0
19465.786,,281.803,339.339,0,0
19532.431,,281.855,339.286,0,0
19599.081,,281.646,339.182,0,0
19665.724,,281.778,339.423,0,0
19732.372,,281.756,339.296,0,0
19799.023,,281.718,339.402,0,0
19865.669,,281.654,339.32,0,0
19932.311,,281.797,339.228,0,0
19998.963,,281.709,339.209,0,0
20065.603,,281.716,339.166,0,0
20132.255,,281.647,339.191,0,0
20198.899,,281.642,339.223,0,0
20265.543,,281.657,339.14,0,0
20332.187,,281.666,339.327,0,0
20398.835,,281.667,339.277,0,0
20465.479,,281.751,339.326,0,0
20532.126,,281.622,339.269,0,0
20598.769,,281.697,339.37,0,0
20665.417,,281.555,339.41,0,0
20732.058,,281.654,339.053,0,0
20798.704,,281.602,339.464,0,0
20865.348,,281.656,339.245,0,0
20931.997,,281.592,339.35,0,0
20998.637,,281.599,339.328,0,0
21065.282,,281.429,339.124,0,0
21131.928,,281.457,339.098,0,0
21198.574,,281.439,339.118,0,0
21265.216,,281.494,339.22,0,0
21331.862,,281.47,339.253,0,0
21398.502,,281.31,339.021,0,0
21465.15,,281.292,339.029,0,0
21531.791,,281.203,339.129,0,0
21598.435,,281.35,339.118,0,0
21665.076,,281.512,339.032,0,0
21731.722,,281.384,339.029,0,0
21798.367,,281.244,338.997,0,0
21865.005,,281.116,338.967,0,0
21931.653,,281.387,338.925,0,0
21998.293,,281.291,339.171,0,0
22064.938,,281.287,338.828,0,0
22131.581,,281.135,338.8,0,0
22198.223,,281.301,338.996,0,0
22264.861,,281.12,338.801,0,0
22331.506,,281.079,338.774,0,0
22398.151,,281.194,338.706,0,0
22464.792,,281.152,338.724,0,0
22531.432,,281.109,338.875,0,0
22598.073,,281.144,338.663,0,0
22664.714,,280.95,338.684,0,0
22731.358,,281.006,338.771,0,0
22797.996,,281.089,338.899,0,0
22864.643,,281.025,338.748,0,0
22931.28,,280.998,338.808,0,0
22997.922,,280.962,338.826,0,0
23064.56,,281.059,338.764,0,0
23131.205,,280.903,338.727,0,0
23197.845,,280.97,338.522,0,0
23264.483,,280.911,338.593,0,0
23331.124,,280.991,338.602,0,0
23397.765,,280.882,338.698,0,0
23464.409,,280.915,338.688,0,0
23531.045,,280.788,338.515,0,0
23597.689,,280.885,338.734,0,0
23664.331,,280.82,338.667,0,0
23730.97,,280.717,338.541,0,0
23797.606,,280.917,338.417,0,0
23864.246,,280.742,338.396,0,0
23930.884,,280.922,338.562,0,0
23997.547,,280.762,338.597,0,0
24064.202,,280.743,338.501,0,0
24130.86,,280.73,338.581,0,0
24197.519,,280.708,338.467,0,0
24264.18,,280.787,338.664,0,0
24330.836,,280.715,338.539,0,0
24397.495,,280.726,338.439,0,0
24464.149,,280.635,338.697,0,0
24530.812,,280.665,338.411,0,0
24597.471,,280.549,338.448,0,0
24664.125,,280.492,338.511,0,0
24730.783,,280.5,338.56,0,0
24797.44,,280.529,338.526,0,0
24864.098,,280.597,338.474,0,0
24930.762,,280.357,338.344,0,0
24997.417,,280.527,338.268,0,0
25064.074,,280.659,338.219,0,0
25130.73,,280.528,338.424,0,0
25197.39,,280.407,338.154,0,0
25264.053,,280.618,338.296,0,0
25330.706,,280.513,338.466,0,0
25397.367,,280.484,338.4,0,0
25464.023,,280.39,338.323,0,0
25530.679,,280.492,338.404,0,0
25597.336,,280.594,338.296,0,0
25663.999,,280.329,338.414,0,0
25730.654,,280.401,338.464,0,0
25797.312,,280.523,338.419,0,0
25863.973,,280.601,338.155,0,0
25930.632,,280.386,338.386,0,0
25997.29,,280.287,338.362,0,0
26063.948,,280.348,338.403,0,0
26130.602,,280.433,338.312,0,0
26197.263,,280.23,338.357,0,0
26263.918,,280.318,338.206,0,0
26330.58,,280.253,338.236,0,0
26397.232,,280.257,338.17,0,0
26463.894,,280.319,338.095,0,0
26530.548,,280.189,338.311,0,0
26597.209,,280.28,338.246,0,0
26663.869,,280.278,338.123,0,0
26730.525,,280.513,338.162,0,0
26797.183,,280.314,338.3,0,0
26863.842,,280.392,338.35,0,0
26930.494,,280.455,338.357,0,0
26997.156,,280.45,338.289,0,0
27063.813,,280.287,338.222,0,0
27130.469,,280.336,338.101,0,0
27197.129,,280.498,338.184,0,0
27263.786,,280.37,338.339,0,0
27330.441,,280.19,338.17,0,0
27397.099,,280.257,338.185,0,0
27463.758,,280.192,338.206,0,0
27530.417,,280.255,338.203,0,0
27597.072,,280.305,338.117,0,0
27663.733,,280.259,338.296,0,0
27730.387,,280.219,338.266,0,0
27797.046,,280.273,338.2,0,0
27863.707,,280.163,338.319,0,0
27930.364,,280.332,338.2,0,0
27997.023,,280.221,338.326,0,0
28063.677,,280.214,338.171,0,0
28130.336,,280.181,338.2,0,0
28196.997,,280.321,338.209,0,0
28263.654,,280.379,338.501,0,0
28330.306,,280.123,338.289,0,0
28396.97,,280.294,338.243,0,0
28463.627,,280.173,338.288,0,0
28530.283,,280.262,338.276,0,0
28596.938,,280.259,338.314,0,0
28663.601,,280.211,338.296,0,0
28730.254,,280.191,338.164,0,0
28796.914,,280.158,337.926,0,0
28863.568,,280.222,338.267,0,0
28930.226,,280.168,338.068,0,0
28996.887,,280.226,338.306,0,0
29063.54,,280.128,338.27,0,0
29130.199,,280.188,338.244,0,0
29196.856,,280.144,338.188,0,0
29263.513,,280.204,338.224,0,0
29330.175,,280.101,338.326,0,0
29396.832,,280.201,338.259,0,0
29463.485,,280.176,338.188,0,0
29530.144,,280.15,338.129,0,0
29596.806,,280.063,338.262,0,0
29663.461,,280.075,338.213,0,0
29730.12,,280.253,338.003,0,0
29796.773,,279.901,337.968,0,0
29863.431,,279.916,337.978,0,0
29930.09,,279.997,338.169,0,0
29996.747,,279.962,337.953,0,0
30063.405,,280.012,338.024,0,0
30130.059,,279.991,337.887,0,0
30196.717,,279.85,337.909,0,0
30263.38,,279.778,337.9,0,0
30330.032,,279.92,338.02,0,0
30396.692,,279.894,338.071,0,0
30463.351,,279.883,337.952,0,0
30530.003,,279.914,337.945,0,0
30596.664,,279.99,337.961,0,0
30663.318,,279.817,338.004,0,0
30729.98,,279.834,338.145,0,0
30796.633,,279.971,338.054,0,0
30863.291,,279.869,337.792,0,0
30929.951,,279.787,337.885,0,0
30996.609,,279.903,337.854,0,0
31063.266,,279.712,337.814,0,0
31129.922,,280.081,338.129,0,0
31196.577,,279.947,337.97,0,0
31263.239,,279.657,337.847,0,0
31329.894,,279.813,338.102,0,0
31396.554,,279.693,337.959,0,0
31463.204,,279.718,337.871,0,0
31529.868,,279.794,337.852,0,0
31596.52,,279.774,337.839,0,0
31663.178,,279.627,338.019,0,0
31729.837,,279.705,337.879,0,0
31796.492,,279.734,337.686,0,0
31863.148,,279.574,337.893,0,0
31929.805,,279.631,337.94,0,0
31996.466,,279.598,337.89,0,0
32063.127,,279.797,338.033,0,0
32129.787,,279.749,338.123,0,0
32196.439,,279.639,337.972,0,0
32263.101,,279.655,337.786,0,0
32329.76,,279.564,338.005,0,0
32396.416,,279.729,338.007,0,0
32463.077,,279.658,337.939,0,0
32529.736,,279.565,337.667,0,0
32596.392,,279.596,337.674,0,0
32663.05,,279.431,337.788,0,0
32729.711,,279.447,337.853,0,0
32796.369,,279.352,337.7,0,0
32863.026,,279.508,337.956,0,0
32929.686,,279.61,337.891,0,0
32996.344,,279.556,337.673,0,0
33063.003,,279.432,337.854,0,0
33129.662,,279.472,337.81,0,0
33196.322,,279.425,337.674,0,0
33262.975,,279.345,337.862,0,0
33329.637,,279.649,337.769,0,0
33396.293,,279.543,337.631,0,0
33462.953,,279.489,337.506,0,0
33529.611,,279.379,337.797,0,0
33596.269,,279.406,337.8,0,0
33662.928,,279.368,337.66,0,0
33729.589,,279.399,337.553,0,0
33796.248,,279.431,337.615,0,0
33862.901,,279.449,337.677,0,0
33929.563,,279.42,337.6,0,0
33996.221,,279.349,337.585,0,0
34062.876,,279.373,337.648,0,0
34129.536,,279.232,337.457,0,0
34196.192,,279.22,337.376,0,0
34262.854,,279.247,337.65,0,0
34329.513,,279.243,337.663,0,0
34396.167,,279.412,337.525,0,0
34462.826,,279.137,337.523,0,0
34529.486,,279.238,337.806,0,0
34596.145,,279.361,337.505,0,0
34662.801,,279.338,337.645,0,0
34729.459,,279.185,337.515,0,0
34796.12,,279.376,337.512,0,0
34862.78,,279.219,337.496,0,0
34929.437,,279.215,337.549,0,0
34996.099,,279.263,337.685,0,0
35062.754,,279.285,337.498,0,0
35129.411,,279.149,337.493,0,0
35196.069,,279.119,337.404,0,0
35262.726,,279.253,337.485,0,0
35329.385,,279.1,337.456,0,0
35396.048,,279.206,337.702,0,0
35462.706,,279.126,337.464,0,0
35529.365,,279.258,337.401,0,0
35596.018,,279.162,337.425,0,0
35662.678,,279.1,337.309,0,0
35729.338,,279.213,337.579,0,0
35795.996,,279.174,337.418,0,0
35862.657,,279.221,337.489,0,0
35929.315,,279.19,337.413,0,0
35995.971,,278.955,337.47,0,0
36062.628,,279.088,337.505,0,0
36129.284,,279.034,337.151,0,0
36195.948,,279.061,337.243,0,0
36262.604,,278.963,337.259,0,0
36329.263,,278.866,337.245,0,0
36395.923,,278.974,337.459,0,0
36462.575,,279.024,337.327,0,0
36529.233,,279.04,337.314,0,0
36595.893,,278.939,337.279,0,0
36662.55,,278.839,337.377,0,0
36729.21,,278.925,337.334,0,0
36795.868,,278.902,337.363,0,0
36862.526,,278.914,337.25,0,0
36929.188,,278.959,337.254,0,0
36995.846,,278.852,337.048,0,0
37062.501,,278.93,337.44,0,0
37129.16,,278.993,337.302,0,0
37195.821,,278.811,337.205,0,0
37262.478,,278.842,337.247,0,0
37329.133,,278.779,337.159,0,0
37395.796,,278.753,337.329,0,0
37462.45,,278.951,337.132,0,0
37529.111,,278.68,337.128,0,0
37595.766,,278.748,337.133,0,0
37662.427,,279.001,337.143,0,0
37729.083,,278.917,337.107,0,0
37795.74,,278.824,337.312,0,0
37862.398,,278.844,337.23,0,0
37929.062,,278.899,337.297,0,0
37995.72,,278.883,337.386,0,0
38062.375,,278.908,337.234,0,0
38129.031,,278.725,337.273,0,0
38195.693,,278.813,337.337,0,0
38262.351,,278.96,337.523,0,0
38329.008,,278.757,337.217,0,0
38395.67,,278.794,337.345,0,0
38462.324,,278.851,337.448,0,0
38528.982,,278.725,337.23,0,0
38595.639,,279.395,338.623,0,0
38662.302,,280.202,338.844,0,0
38728.96,,280.499,338.984,0,0
38795.615,,280.574,338.814,0,0
38862.274,,280.519,338.852,0,0
38928.935,,280.566,339.059,0,0
38995.591,,280.661,339.04,0,0
39062.245,,280.647,339.032,0,0
39128.904,,280.504,338.859,0,0
39195.567,,280.456,339.001,0,0
39262.225,,280.491,339.22,0,0
39328.878,,280.765,339.098,0,0
39395.539,,280.899,339.329,0,0
39462.197,,281.096,339.265,0,0
39528.856,,281.049,339.511,0,0
39595.512,,281.293,339.774,0,0
39662.174,,281.735,340.479,0,0
39728.826,,282.344,340.995,0,0
39795.485,,282.736,341.153,0,0
39862.148,,282.787,341.396,0,0
39928.803,,282.692,341.216,0,0
39995.463,,282.806,341.418,0,0
40062.121,,282.842,341.315,0,0
40128.777,,282.905,341.25,0,0
40195.44,,282.807,341.279,0,0
40262.096,,282.873,341.102,0,0
40328.756,,282.72,341.283,0,0
40395.41,,282.75,341.199,0,0
40462.071,,282.715,341.184,0,0
40528.726,,282.725,341.241,0,0
40595.384,,282.764,341.051,0,0
40662.045,,282.797,341.232,0,0
40728.707,,282.614,341.225,0,0
40795.359,,282.666,341.2,0,0
40862.019,,282.528,341.121,0,0
40928.681,,282.64,340.985,0,0
40995.336,,282.408,340.794,0,0
41061.995,,282.151,340.474,0,0
41128.652,,281.792,340.175,0,0
41195.31,,281.552,340.046,0,0
41261.968,,281.413,339.524,0,0
41328.63,,280.989,339.505,0,0
41395.287,,281.07,339.86,0,0
41461.946,,281.637,340.079,0,0
41528.604,,281.807,340.27,0,0
41595.262,,281.745,340.363,0,0
41661.919,,281.902,340.413,0,0
41728.577,,282.014,340.33,0,0
41795.235,,281.979,340.344,0,0
41861.899,,281.966,340.391,0,0
41928.552,,281.835,340.31,0,0
41995.214,,281.75,340.593,0,0
42061.872,,282.006,340.476,0,0
42128.525,,282.008,340.401,0,0
42195.184,,281.901,340.253,0,0
42261.845,,281.976,340.253,0,0
42328.507,,281.794,340.193,0,0
42395.16,,281.673,340.139,0,0
42461.818,,281.824,340.253,0,0
42528.48,,281.603,340.086,0,0
42595.136,,281.705,340.238,0,0
42661.793,,281.482,339.975,0,0
42728.451,,281.626,340.024,0,0
42795.11,,281.574,340.167,0,0
42861.773,,281.761,340.176,0,0
42928.426,,281.679,340.293,0,0
42995.088,,281.889,340.454,0,0
43061.742,,281.896,340.377,0,0
43128.405,,281.776,340.37,0,0
43195.065,,281.723,340.595,0,0
43261.721,,282.155,340.622,0,0
43328.378,,281.963,340.632,0,0
43395.033,,282.103,340.635,0,0
43461.695,,282.137,340.481,0,0
43528.355,,282.056,340.552,0,0
43595.013,,281.984,340.591,0,0
43661.666,,281.944,340.672,0,0
43728.324,,281.916,340.403,0,0
43794.982,,281.94,340.655,0,0
43861.646,,281.951,340.385,0,0
43928.303,,281.844,340.628,0,0
43994.961,,282.15,340.575,0,0
44061.621,,282.114,340.548,0,0
44128.278,,282.163,340.695,0,0
44194.933,,282.151,340.594,0,0
44261.592,,282.048,340.639,0,0
44328.251,,282.192,340.55,0,0
44394.909,,282.157,340.555,0,0
44461.567,,282.049,340.614,0,0
44528.224,,282.114,340.696,0,0
44594.885,,282.081,340.707,0,0
44661.545,,282.066,340.397,0,0
44728.199,,282.098,340.63,0,0
44794.861,,281.893,340.351,0,0
44861.514,,281.972,340.351,0,0
44928.176,,281.789,340.345,0,0
44994.831,,281.79,340.385,0,0
45061.488,,281.889,340.412,0,0
45128.15,,281.7,340.294,0,0
45194.809,,281.849,340.441,0,0
45261.463,,281.708,340.353,0,0
45328.122,,281.788,340.361,0,0
45394.781,,281.81,340.193,0,0
45461.44,,281.855,340.228,0,0
45528.096,,281.558,340.154,0,0
45594.757,,281.715,340.425,0,0
45661.416,,281.578,340.122,0,0
45728.073,,281.742,340.377,0,0
45794.729,,281.722,340.466,0,0
45861.393,,281.68,340.304,0,0
45928.048,,281.744,340.195,0,0
45994.703,,281.553,340.384,0,0
46061.367,,281.626,340.472,0,0
46128.019,,281.793,340.255,0,0
46194.682,,281.753,340.196,0,0
46261.338,,281.534,340.262,0,0
46327.994,,281.723,340.281,0,0
46394.655,,281.68,340.386,0,0
46461.313,,281.61,340.213,0,0
46527.974,,281.498,340.251,0,0
46594.628,,281.721,340.321,0,0
46661.286,,281.688,340.246,0,0
46727.948,,281.437,340.169,0,0
46794.601,,281.619,340.346,0,0
46861.261,,281.772,340.159,0,0
46927.917,,281.622,340.246,0,0
46994.577,,281.617,340.307,0,0
47061.236,,281.423,340.157,0,0
47127.893,,281.537,340.322,0,0
47194.555,,281.538,340.184,0,0
47261.209,,281.557,340.155,0,0
47327.872,,281.418,340.057,0,0
47394.528,,281.617,340.253,0,0
47461.182,,281.633,340.177,0,0
47527.842,,281.313,340.147,0,0
47594.501,,281.393,340.048,0,0
47661.16,,281.487,339.904,0,0
47727.814,,281.422,339.979,0,0
47794.472,,281.259,339.733,0,0
47861.136,,280.824,339.467,0,0
47927.79,,280.461,338.892,0,0
47994.45,,280.192,338.536,0,0
48061.106,,279.571,338.104,0,0
48127.762,,279.085,337.555,0,0
48194.421,,278.693,336.919,0,0
48261.076,,278.161,336.724,0,0
48327.733,,277.554,336.009,0,0
48394.387,,277.261,335.753,0,0
48461.044,,276.796,335.284,0,0
48527.707,,276.332,334.915,0,0
48594.361,,275.911,334.359,0,0
48661.02,,275.551,333.882,0,0
48727.672,,275.144,333.671,0,0
48794.328,,274.44,333.149,0,0
48860.987,,274.152,332.66,0,0
48927.644,,273.864,332.297,0,0
48994.305,,273.666,331.994,0,0
49060.96,,273.038,331.692,0,0
49127.616,,272.724,331.376,0,0
49194.274,,272.653,331.235,0,0
49260.928,,272.429,331.292,0,0
49327.586,,272.315,330.833,0,0
49394.244,,272.144,330.817,0,0
49460.898,,272.214,330.892,0,0
49527.556,,272.165,330.85,0,0
49594.212,,272.162,330.707,0,0
49660.868,,272.177,330.715,0,0
49727.525,,272.172,330.725,0,0
49794.184,,272.038,330.79,0,0
49860.822,,272.18,330.885,0,0
49927.497,,272.064,330.842,0,0
49994.158,,272.14,330.879,0,0
50060.809,,271.941,330.967,0,0
50127.47,,272.054,330.932,0,0
50194.124,,272.086,330.754,0,0
50260.779,,272.055,330.783,0,0
50327.441,,271.976,330.879,0,0
50394.093,,271.926,330.774,0,0
50460.752,,271.968,330.766,0,0
50527.406,,271.889,330.813,0,0
50594.065,,272.053,330.748,0,0
50660.721,,271.946,330.986,0,0
50727.379,,272.019,330.912,0,0
50794.035,,272.108,330.722,0,0
50860.697,,271.922,330.847,0,0
50927.349,,271.994,330.838,0,0
50994.005,,271.842,330.804,0,0
51060.664,,271.93,330.828,0,0
51127.319,,272.04,330.744,0,0
51193.975,,271.962,330.562,0,0
51260.634,,271.86,330.825,0,0
51327.29,,271.935,330.689,0,0
51393.948,,271.963,330.622,0,0
51460.6,,271.839,330.775,0,0
51527.263,,271.827,330.881,0,0
51593.916,,272.064,331.003,0,0
51660.574,,271.849,330.641,0,0
51727.232,,271.83,330.66,0,0
51793.888,,271.913,330.84,0,0
51860.542,,271.86,330.659,0,0
51927.201,,271.837,330.794,0,0
51993.858,,271.884,330.741,0,0
52060.516,,271.917,330.79,0,0
52127.172,,271.868,330.711,0,0
52193.825,,271.945,330.734,0,0
52260.486,,271.829,330.675,0,0
52327.14,,271.771,330.633,0,0
52393.795,,272.027,330.662,0,0
52460.453,,271.802,330.566,0,0
52527.107,,271.86,330.724,0,0
52593.765,,271.794,330.765,0,0
52660.424,,271.836,330.649,0,0
52727.083,,271.86,330.671,0,0
52793.735,,271.865,330.757,0,0
52860.394,,271.752,330.653,0,0
52927.048,,271.662,330.772,0,0
52993.705,,271.717,330.74,0,0
53060.365,,271.852,330.656,0,0
53127.02,,271.814,330.63,0,0
53193.675,,271.759,330.659,0,0
53260.336,,271.864,330.626,0,0
53326.986,,271.929,330.574,0,0
53393.643,,271.804,330.527,0,0
53460.3,,271.759,330.787,0,0
53526.958,,271.84,330.587,0,0
53593.618,,271.584,330.397,0,0
53660.269,,271.765,330.638,0,0
53726.931,,271.835,330.423,0,0
53793.583,,271.693,330.718,0,0
53860.241,,271.776,330.641,0,0
53926.899,,271.752,330.552,0,0
53993.556,,271.716,330.597,0,0
54060.211,,271.827,330.666,0,0
54126.869,,271.748,330.599,0,0
54193.523,,271.707,330.605,0,0
54260.18,,271.648,330.712,0,0
54326.836,,271.709,330.423,0,0
54393.491,,271.601,330.494,0,0
54460.151,,271.785,330.651,0,0
54526.807,,271.735,330.359,0,0
54593.463,,271.725,330.463,0,0
54660.119,,271.641,330.671,0,0
54726.772,,271.543,330.67,0,0
54793.433,,271.608,330.376,0,0
54860.085,,271.469,330.482,0,0
54926.742,,271.575,330.418,0,0
54993.398,,271.611,330.408,0,0
55060.055,,271.502,330.401,0,0
55126.712,,271.645,330.366,0,0
55193.369,,271.517,330.451,0,0
55260.023,,271.564,330.563,0,0
55326.684,,271.637,330.655,0,0
55393.341,,271.544,330.401,0,0
55459.998,,271.542,330.428,0,0
55526.65,,271.555,330.577,0,0
55593.307,,271.429,330.51,0,0
55659.966,,271.497,330.544,0,0
55726.619,,271.45,330.426,0,0
55793.279,,271.621,330.527,0,0
55859.933,,271.524,330.525,0,0
55926.591,,271.428,330.37,0,0
55993.245,,271.524,330.418,0,0
56059.906,,271.462,330.318,0,0
56126.562,,271.412,330.415,0,0
56193.222,,271.538,330.452,0,0
56259.876,,271.405,330.273,0,0
56326.533,,271.513,330.502,0,0
56393.192,,271.429,330.271,0,0
56459.854,,271.356,330.342,0,0
56526.51,,271.435,330.359,0,0
56593.17,,271.493,330.325,0,0
56659.825,,271.392,330.323,0,0
56726.486,,271.414,330.257,0,0
56793.143,,271.366,330.2,0,0
56859.8,,271.42,330.427,0,0
56926.457,,271.326,330.279,0,0
56993.115,,271.44,330.28,0,0
57059.773,,271.405,330.2,0,0
57126.433,,271.268,330.251,0,0
57193.087,,271.296,330.256,0,0
57259.743,,271.469,330.365,0,0
57326.404,,271.338,330.283,0,0
57393.061,,271.355,330.275,0,0
57459.722,,271.37,330.028,0,0
57526.379,,271.326,330.257,0,0
57593.037,,271.346,330.304,0,0
57659.692,,271.239,330.048,0,0
57726.349,,271.244,330.391,0,0
57793.011,,271.256,330.274,0,0
57859.663,,271.32,330.256,0,0
57926.326,,271.326,330.098,0,0
57992.985,,271.343,330.44,0,0
58059.638,,271.165,329.97,0,0
58126.294,,271.311,330.231,0,0
58192.958,,271.176,330.11,0,0
58259.613,,271.176,330.207,0,0
58326.274,,271.276,330.107,0,0
58392.928,,271.245,330.194,0,0
58459.588,,271.108,330.06,0,0
58526.244,,271.34,330.198,0,0
58592.902,,271.319,330.174,0,0
58659.556,,271.304,330.061,0,0
58726.214,,271.289,330.198,0,0
58792.878,,271.279,330.078,0,0
58859.531,,271.218,330.156,0,0
58926.192,,271.244,330.131,0,0
58992.851,,271.086,330.018,0,0
59059.503,,271.095,329.994,0,0
59126.164,,271.203,330.098,0,0
59192.823,,271.019,330.045,0,0
59259.477,,271.173,329.973,0,0
59326.134,,271.242,330.108,0,0
59392.793,,271.086,330.156,0,0
59459.451,,270.909,330.03,0,0
59526.11,,270.923,329.937,0,0
59592.766,,271.12,329.983,0,0
59659.423,,271.074,330.01,0,0
59726.082,,271.084,330.147,0,0
59792.744,,271.069,330.088,0,0
59859.396,,271.212,330.127,0,0
59926.058,,271.06,329.974,0,0
59992.717,,271.036,329.866,0,0
60059.369,,270.91,330.089,0,0
60126.028,,270.885,330.061,0,0
60192.685,,270.996,329.877,0,0
60259.346,,271.039,329.918,0,0
60326.0,,270.954,330.093,0,0
60392.66,,271.04,329.842,0,0
60459.321,,271.125,329.822,0,0
60525.976,,271.155,329.994,0,0
60592.633,,271.015,329.93,0,0
60659.289,,271.051,330.044,0,0
60725.948,,270.882,329.971,0,0
60792.61,,271.056,329.925,0,0
60859.261,,271.069,329.968,0,0
60925.925,,271.034,329.859,0,0
60992.581,,271.036,330.043,0,0
61059.239,,271.023,329.875,0,0
61125.895,,270.94,329.933,0,0
61192.551,,270.913,329.778,0,0
61259.209,,270.895,329.921,0,0
61325.868,,270.934,329.782,0,0
61392.523,,270.897,329.893,0,0
61459.186,,270.824,329.956,0,0
61525.84,,270.84,329.844,0,0
61592.501,,270.758,329.71,0,0
61659.159,,270.895,329.756,0,0
61725.815,,270.972,329.617,0,0
61792.474,,270.777,329.777,0,0
61859.128,,270.829,329.774,0,0
61925.784,,270.748,329.644,0,0
61992.446,,270.974,329.933,0,0
62059.104,,270.896,329.743,0,0
62125.762,,270.976,329.717,0,0
62192.419,,270.812,329.618,0,0
62259.073,,270.788,329.499,0,0
62325.734,,270.842,329.72,0,0
62392.393,,270.768,329.967,0,0
62459.046,,270.785,329.618,0,0
62525.709,,270.925,329.54,0,0
62592.365,,270.712,329.754,0,0
62659.024,,270.8,329.736,0,0
62725.677,,270.68,329.62,0,0
62792.334,,270.8,329.59,0,0
62858.996,,270.77,329.691,0,0
62925.654,,270.618,329.709,0,0
62992.309,,270.812,329.517,0,0
63058.969,,270.754,329.617,0,0
63125.628,,270.683,329.771,0,0
63192.279,,270.843,329.73,0,0
63258.942,,270.776,329.531,0,0
63325.6,,270.83,329.689,0,0
63392.256,,270.607,329.629,0,0
63458.914,,270.709,329.66,0,0
63525.571,,270.568,329.632,0,0
63592.229,,270.593,329.654,0,0
63658.883,,270.634,329.828,0,0
63725.545,,270.688,329.656,0,0
63792.204,,270.718,329.653,0,0
63858.857,,270.61,329.471,0,0
63925.517,,270.7,329.687,0,0
63992.176,,270.623,329.569,0,0
64058.834,,270.55,329.564,0,0
64125.494,,270.56,329.73,0,0
64192.149,,270.754,329.516,0,0
64258.807,,270.692,329.723,0,0
64325.462,,270.64,329.35,0,0
64392.122,,270.658,329.531,0,0
64458.778,,270.69,329.491,0,0
64525.436,,270.563,329.567,0,0
64592.1,,270.493,329.408,0,0
64658.752,,270.678,329.678,0,0
64725.413,,270.776,329.497,0,0
64792.069,,270.635,329.683,0,0
64858.726,,270.567,329.401,0,0
64925.384,,270.79,329.64,0,0
64992.043,,270.556,329.506,0,0
65058.705,,270.471,329.403,0,0
65125.362,,270.536,329.338,0,0
65192.019,,270.529,329.395,0,0
65258.678,,270.396,329.579,0,0
65325.338,,270.67,329.504,0,0
65391.992,,270.483,329.424,0,0
65458.648,,270.643,329.344,0,0
65525.31,,270.532,329.503,0,0
65591.966,,270.477,329.639,0,0
65658.623,,270.631,329.42,0,0
65725.285,,270.387,329.502,0,0
65791.944,,270.467,329.399,0,0
65858.6,,270.451,329.411,0,0
65925.255,,270.605,329.45,0,0
65991.919,,270.314,329.374,0,0
66058.575,,270.543,329.481,0,0
66125.233,,270.35,329.348,0,0
66191.886,,270.426,329.399,0,0
66258.55,,270.447,329.329,0,0
66325.208,,270.323,329.603,0,0
66391.865,,270.324,329.488,0,0
66458.522,,270.395,329.429,0,0
66525.181,,270.568,329.424,0,0
66591.839,,270.597,329.26,0,0
66658.498,,270.477,329.514,0,0
66725.155,,270.477,329.257,0,0
66791.811,,270.494,329.376,0,0
66858.469,,270.417,329.506,0,0
66925.131,,270.379,329.452,0,0
66991.786,,270.448,329.159,0,0
67058.442,,270.366,329.406,0,0
67125.102,,270.174,329.398,0,0
67191.758,,270.281,329.343,0,0
67258.415,,270.235,329.247,0,0
67325.073,,270.464,329.518,0,0
67391.737,,270.232,329.197,0,0
67458.394,,270.266,329.369,0,0
67525.05,,270.375,329.198,0,0
67591.705,,270.343,329.33,0,0
67658.364,,270.395,329.305,0,0
67725.023,,270.346,329.345,0,0
67791.685,,270.411,329.399,0,0
67858.339,,270.214,329.35,0,0
67925.0,,270.509,329.35,0,0
67991.654,,270.374,329.395,0,0
68058.317,,270.368,329.334,0,0
68124.972,,270.331,329.262,0,0
68191.633,,270.188,329.316,0,0
68258.285,,270.289,329.306,0,0
68324.949,,270.141,329.213,0,0
68391.603,,270.319,329.298,0,0
68458.262,,270.129,329.325,0,0
68524.92,,270.22,329.252,0,0
68591.58,,270.149,329.443,0,0
68658.239,,270.392,329.288,0,0
68724.893,,270.351,329.285,0,0
68791.552,,270.28,329.331,0,0
68858.213,,270.259,329.381,0,0
68924.87,,270.181,329.322,0,0
68991.527,,270.196,329.209,0,0
69058.186,,270.192,329.124,0,0
69124.845,,270.228,329.277,0,0
69191.497,,270.235,329.211,0,0
69258.157,,270.193,329.247,0,0
69324.818,,270.159,329.208,0,0
69391.476,,270.262,329.226,0,0
69458.129,,270.26,329.256,0,0
69524.792,,270.15,329.082,0,0
69591.447,,270.199,329.18,0,0
69658.108,,270.207,329.302,0,0
69724.76,,270.297,329.191,0,0
69791.421,,270.233,329.245,0,0
69858.082,,270.042,329.27,0,0
69924.741,,270.241,329.191,0,0
69991.397,,270.177,329.3,0,0
70058.055,,270.26,329.041,0,0
70124.711,,270.289,329.163,0,0
70191.37,,270.273,329.218,0,0
70258.03,,270.095,329.274,0,0
70324.687,,270.304,329.247,0,0
70391.341,,270.054,329.032,0,0
70458.0,,270.168,329.096,0,0
70524.658,,270.064,329.205,0,0
70591.314,,270.192,329.186,0,0
70657.978,,270.009,329.01,0,0
70724.636,,269.915,328.985,0,0
70791.291,,270.094,329.111,0,0
70857.948,,269.916,329.185,0,0
70924.605,,270.057,329.037,0,0
70991.263,,270.089,329.14,0,0
71057.922,,270.122,329.08,0,0
71124.584,,270.099,329.058,0,0
71191.237,,270.066,329.156,0,0
71257.897,,270.083,328.874,0,0
71324.553,,270.048,328.963,0,0
71391.212,,269.828,328.891,0,0
71457.872,,270.072,328.964,0,0
71524.53,,269.983,329.117,0,0
71591.19,,270.127,329.079,0,0
71657.847,,269.902,329.034,0,0
71724.505,,270.032,329.073,0,0
71791.16,,269.975,328.895,0,0
71857.82,,269.92,329.006,0,0
71924.474,,270.021,328.94,0,0
71991.134,,269.858,328.895,0,0
72057.791,,269.987,329.017,0,0
72124.453,,269.686,328.94,0,0
72191.11,,269.895,329.078,0,0
72257.767,,269.816,328.931,0,0
72324.425,,269.9,328.788,0,0
72391.08,,269.932,328.938,0,0
72457.741,,269.991,328.996,0,0
72524.398,,269.869,328.971,0,0
72591.058,,269.813,328.91,0,0
72657.714,,269.837,328.958,0,0
72724.37,,269.931,328.811,0,0
72791.031,,269.938,328.97,0,0
72857.686,,270.058,328.935,0,0
72924.343,,269.899,328.692,0,0
72991.0,,269.796,328.749,0,0
73057.66,,269.763,328.82,0,0
73124.315,,269.801,328.955,0,0
73190.976,,270.046,328.709,0,0
73257.631,,269.826,328.844,0,0
73324.29,,269.874,328.812,0,0
73390.95,,269.819,328.778,0,0
73457.608,,269.78,328.786,0,0
73524.265,,269.744,328.853,0,0
73590.921,,269.883,328.729,0,0
73657.581,,269.801,328.845,0,0
73724.24,,269.769,328.777,0,0
73790.896,,269.85,328.972,0,0
73857.554,,269.786,328.792,0,0
73924.215,,269.687,328.792,0,0
73990.873,,269.83,328.807,0,0
74057.529,,269.916,328.798,0,0
74124.187,,269.967,328.692,0,0
74190.842,,269.842,328.69,0,0
74257.504,,269.684,328.933,0,0
74324.16,,269.68,328.615,0,0
74390.817,,269.68,328.741,0,0
74457.476,,269.744,328.919,0,0
74524.136,,269.689,329.012,0,0
74590.791,,269.712,328.711,0,0
74657.447,,269.608,328.612,0,0
74724.106,,269.779,328.693,0,0
74790.768,,269.57,328.606,0,0
74857.423,,269.639,328.706,0,0
74924.079,,269.727,328.716,0,0
74990.737,,269.745,328.606,0,0
75057.397,,269.689,328.508,0,0
75124.057,,269.786,328.669,0,0
75190.711,,269.87,328.967,0,0
75257.372,,269.663,328.672,0,0
75324.028,,269.647,328.68,0,0
75390.682,,269.57,328.716,0,0
75457.346,,269.739,328.771,0,0
75524.003,,269.616,328.602,0,0
75590.66,,269.683,328.564,0,0
75657.318,,269.65,328.752,0,0
75723.975,,269.649,328.67,0,0
75790.631,,269.446,328.667,0,0
75857.29,,269.669,328.551,0,0
75923.948,,269.539,328.867,0,0
75990.606,,269.785,328.665,0,0
76057.262,,269.678,328.709,0,0
76123.92,,269.572,328.616,0,0
76190.58,,269.541,328.835,0,0
76257.241,,269.639,328.703,0,0
76323.898,,269.506,328.533,0,0
76390.553,,269.652,328.603,0,0
76457.209,,269.664,328.641,0,0
76523.866,,269.643,328.68,0,0
76590.53,,269.679,328.583,0,0
76657.188,,269.478,328.61,0,0
76723.844,,269.603,328.77,0,0
76790.503,,269.552,328.605,0,0
76857.156,,269.556,328.578,0,0
76923.814,,269.513,328.741,0,0
76990.471,,269.372,328.549,0,0
77057.13,,269.572,328.557,0,0
77123.788,,269.654,328.498,0,0
77190.445,,269.482,328.613,0,0
77257.104,,269.536,328.468,0,0
77323.763,,269.48,328.539,0,0
77390.422,,269.394,328.709,0,0
77457.078,,269.641,328.651,0,0
77523.737,,269.668,328.762,0,0
77590.395,,269.607,328.457,0,0
77657.052,,269.515,328.527,0,0
77723.709,,269.559,328.575,0,0
77790.367,,269.546,328.354,0,0
77857.028,,269.348,328.439,0,0
77923.682,,269.397,328.58,0,0
77990.342,,269.362,328.783,0,0
78056.996,,269.465,328.483,0,0
78123.657,,269.372,328.385,0,0
78190.318,,269.453,328.534,0,0
78256.969,,269.415,328.431,0,0
78323.628,,269.347,328.47,0,0
78390.288,,269.477,328.568,0,0
78456.945,,269.455,328.559,0,0
78523.605,,269.506,328.445,0,0
78590.263,,269.569,328.458,0,0
78656.921,,269.379,328.516,0,0
78723.579,,269.344,328.541,0,0
78790.236,,269.373,328.475,0,0
78856.895,,269.293,328.389,0,0
78923.549,,269.471,328.513,0,0
78990.205,,269.374,328.472,0,0
79056.869,,269.395,328.442,0,0
79123.521,,269.518,328.498,0,0
79190.179,,269.539,328.495,0,0
79256.841,,269.356,328.345,0,0
79323.495,,269.447,328.363,0,0
79390.156,,269.311,328.27,0,0
79456.811,,269.393,328.341,0,0
79523.468,,269.309,328.22,0,0
79590.131,,269.44,328.442,0,0
79656.789,,269.457,328.482,0,0
79723.441,,269.225,328.389,0,0
79790.1,,269.397,328.468,0,0
79856.756,,269.339,328.376,0,0
79923.418,,269.52,328.338,0,0
79990.075,,269.408,328.549,0,0
80056.736,,269.2,328.39,0,0
80123.394,,269.459,328.388,0,0
80190.047,,269.219,328.422,0,0
80256.705,,269.347,328.297,0,0
80323.362,,269.347,328.325,0,0
80390.02,,269.333,328.444,0,0
80456.684,,269.374,328.399,0,0
80523.339,,269.353,328.339,0,0
80589.998,,269.311,328.229,0,0
80656.658,,269.188,328.303,0,0
80723.316,,269.121,328.436,0,0
80789.969,,269.263,328.273,0,0
80856.628,,269.332,328.475,0,0
80923.286,,269.253,328.379,0,0
80989.948,,269.28,328.4,0,0
81056.603,,269.294,328.543,0,0
81123.26,,269.157,328.228,0,0
81189.916,,269.238,328.353,0,0
81256.575,,269.284,328.316,0,0
81323.236,,269.237,328.367,0,0
81389.894,,269.145,328.305,0,0
81456.551,,269.068,328.168,0,0
81523.21,,269.159,328.288,0,0
81589.871,,269.133,328.28,0,0
81656.526,,269.075,328.27,0,0
81723.18,,269.215,328.119,0,0
81789.84,,269.134,328.325,0,0
81856.5,,269.287,328.368,0,0
81923.159,,269.243,328.244,0,0
81989.818,,269.357,328.317,0,0
82056.473,,269.217,328.172,0,0
82123.131,,269.163,328.356,0,0
82189.793,,269.194,328.386,0,0
82256.45,,269.279,328.338,0,0
82323.103,,269.147,328.229,0,0
82389.762,,269.114,328.217,0,0
82456.42,,269.22,328.11,0,0
82523.077,,269.23,328.244,0,0
82589.738,,269.297,328.122,0,0
82656.393,,269.177,328.366,0,0
82723.056,,269.119,328.115,0,0
82789.713,,269.181,328.188,0,0
82856.367,,269.092,328.198,0,0
82923.029,,269.031,328.321,0,0
82989.683,,269.224,328.06,0,0
83056.343,,269.155,328.151,0,0
83123.002,,269.063,328.299,0,0
83189.656,,269.125,328.102,0,0
83256.319,,269.148,328.173,0,0
83322.979,,269.119,328.305,0,0
83389.632,,269.032,328.0,0,0
83456.293,,269.146,328.278,0,0
83522.953,,269.044,328.095,0,0
83589.608,,268.951,328.134,0,0
83656.264,,268.978,328.256,0,0
83722.922,,268.989,328.495,0,0
83789.578,,269.042,327.917,0,0
83856.238,,269.15,328.324,0,0
83922.901,,269.121,328.124,0,0
83989.554,,268.989,328.031,0,0
84056.217,,269.023,328.086,0,0
84122.871,,269.087,328.147,0,0
84189.531,,268.987,328.375,0,0
84256.188,,268.87,328.332,0,0
84322.846,,269.244,328.148,0,0
84389.502,,269.093,328.115,0,0
84456.162,,269.05,328.12,0,0
84522.819,,268.928,328.14,0,0
84589.479,,268.907,328.049,0,0
84656.138,,268.978,328.194,0,0
84722.794,,268.873,328.106,0,0
84789.452,,269.064,328.202,0,0
84856.112,,268.912,328.183,0,0
84922.769,,268.965,328.069,0,0
84989.427,,268.938,328.172,0,0
85056.083,,268.993,328.16,0,0
85122.74,,268.995,328.045,0,0
85189.402,,268.967,328.063,0,0
85256.055,,269.005,328.072,0,0
85322.719,,269.111,327.972,0,0
85389.371,,268.961,328.121,0,0
85456.031,,269.037,328.196,0,0
85522.689,,269.04,328.082,0,0
85589.349,,268.939,328.152,0,0
85656.007,,268.813,328.09,0,0
85722.663,,269.059,328.056,0,0
85789.319,,268.818,328.197,0,0
85855.981,,268.882,328.022,0,0
85922.64,,268.763,328.16,0,0
85989.296,,268.95,328.127,0,0
86055.956,,268.862,328.151,0,0
86122.61,,268.83,328.042,0,0
86189.273,,268.921,327.977,0,0
86255.917,,268.72,327.808,0,0
86322.582,,268.9,327.928,0,0
86389.244,,268.855,328.035,0,0
86455.899,,268.871,327.961,0,0
86522.556,,268.962,328.055,0,0
86589.218,,268.965,327.783,0,0
86655.872,,268.932,327.963,0,0
86722.534,,268.89,327.864,0,0
86789.193,,268.745,327.994,0,0
86855.847,,268.712,328.068,0,0
86922.504,,268.782,327.913,0,0
86989.165,,268.843,327.988,0,0
87055.824,,268.959,328.014,0,0
87122.483,,268.866,328.111,0,0
87189.136,,268.66,328.073,0,0
87255.796,,268.772,328.021,0,0
87322.452,,268.639,327.945,0,0
87389.114,,268.787,327.931,0,0
87455.769,,269.005,327.987,0,0
87522.431,,268.717,327.985,0,0
87589.084,,268.813,327.844,0,0
87655.742,,268.648,327.988,0,0
87722.403,,268.729,328.035,0,0
87789.061,,268.719,328.072,0,0
87855.72,,268.766,327.914,0,0
87922.376,,268.655,327.87,0,0
87989.034,,268.752,328.04,0,0
88055.693,,268.57,327.981,0,0
88122.355,,268.802,327.91,0,0
88189.014,,268.653,327.929,0,0
88255.672,,268.625,327.918,0,0
88322.33,,268.762,327.951,0,0
88388.986,,268.695,327.843,0,0
88455.648,,268.873,327.956,0,0
88522.306,,268.788,328.044,0,0
88588.961,,268.733,327.881,0,0
88655.622,,268.797,328.016,0,0
88722.283,,268.723,328.033,0,0
88788.937,,268.728,327.985,0,0
88855.598,,268.781,327.974,0,0
88922.256,,268.8,327.922,0,0
88988.916,,268.615,328.063,0,0
89055.572,,268.694,327.865,0,0
89122.232,,268.808,327.692,0,0
89188.895,,268.741,327.939,0,0
89255.552,,268.541,327.784,0,0
89322.211,,268.734,327.751,0,0
89388.868,,268.621,327.824,0,0
89455.527,,268.684,327.811,0,0
89522.186,,268.609,327.939,0,0
89588.842,,268.669,327.974,0,0
89655.501,,268.622,327.929,0,0
89722.163,,268.817,328.054,0,0
89788.819,,268.655,327.823,0,0
89855.481,,268.758,327.823,0,0
89922.135,,268.608,327.697,0,0
89988.798,,268.63,327.801,0,0
90055.452,,268.671,327.69,0,0
90122.116,,268.588,327.876,0,0
90188.776,,268.684,327.805,0,0
90255.43,,268.683,327.938,0,0
90322.093,,268.723,327.824,0,0
90388.746,,268.596,327.794,0,0
90455.405,,268.539,327.802,0,0
90522.068,,268.569,327.789,0,0
90588.728,,268.592,327.825,0,0
90655.382,,268.511,327.815,0,0
90722.046,,268.741,327.748,0,0
90788.703,,268.66,327.773,0,0
90855.363,,268.687,327.788,0,0
90922.021,,268.566,327.766,0,0
90988.678,,268.482,327.737,0,0
91055.335,,268.773,327.944,0,0
91121.997,,268.617,327.794,0,0
91188.65,,268.59,327.976,0,0
91255.313,,268.522,327.863,0,0
91321.974,,268.575,327.761,0,0
91388.63,,268.435,327.862,0,0
91455.291,,268.536,327.813,0,0
91521.946,,268.745,327.786,0,0
91588.604,,268.507,327.807,0,0
91655.264,,268.463,327.667,0,0
91721.921,,268.607,327.812,0,0
91788.583,,268.58,327.971,0,0
91855.239,,268.509,327.763,0,0
91921.897,,268.446,327.651,0,0
91988.557,,268.664,328.068,0,0
92055.215,,268.48,327.768,0,0
92121.874,,268.535,327.868,0,0
92188.532,,268.558,327.868,0,0
92255.19,,268.449,327.713,0,0
92321.85,,268.69,327.864,0,0
92388.511,,268.555,327.764,0,0
92455.172,,268.516,327.699,0,0
92521.827,,268.573,327.613,0,0
92588.486,,268.554,327.661,0,0
92655.143,,268.475,327.599,0,0
92721.802,,268.57,327.766,0,0
92788.466,,268.343,327.749,0,0
92855.119,,268.468,327.818,0,0
92921.782,,268.48,327.703,0,0
92988.442,,268.516,327.608,0,0
93055.102,,268.517,327.726,0,0
93121.755,,268.497,327.738,0,0
93188.414,,268.412,327.795,0,0
93255.074,,268.455,327.828,0,0
93321.733,,268.453,327.731,0,0
93388.395,,268.415,327.668,0,0
93455.05,,268.29,327.665,0,0
93521.712,,268.606,327.754,0,0
93588.37,,268.309,327.797,0,0
93655.026,,268.441,327.7,0,0
93721.684,,268.296,327.703,0,0
93788.345,,268.556,327.813,0,0
93855.005,,268.34,327.604,0,0
93921.66,,268.309,327.616,0,0
93988.324,,268.445,327.698,0,0
94054.977,,268.441,327.76,0,0
94121.641,,268.45,327.549,0,0
94188.295,,268.319,327.633,0,0
94254.959,,268.563,327.418,0,0
94321.617,,268.398,327.596,0,0
94388.272,,268.308,327.722,0,0
94454.935,,268.593,327.453,0,0
94521.591,,268.252,327.638,0,0
94588.248,,268.383,327.655,0,0
94654.909,,268.363,327.419,0,0
94721.566,,268.292,327.51,0,0
94788.224,,268.409,327.7,0,0
94854.888,,268.526,327.551,0,0
94921.541,,268.374,327.553,0,0
94988.2,,268.286,327.597,0,0
95054.863,,268.445,327.707,0,0
95121.52,,268.31,327.617,0,0
95188.178,,268.356,327.558,0,0
95254.839,,268.311,327.527,0,0
95321.494,,268.376,327.68,0,0
95388.155,,268.222,327.515,0,0
95454.812,,268.297,327.429,0,0
95521.475,,268.388,327.546,0,0
95588.134,,268.402,327.509,0,0
95654.793,,268.27,327.632,0,0
95721.449,,268.118,327.507,0,0
95788.105,,268.356,327.47,0,0
95854.768,,268.244,327.486,0,0
95921.427,,268.356,327.535,0,0
95988.081,,268.45,327.456,0,0
96054.738,,268.264,327.527,0,0
96121.401,,268.325,327.687,0,0
96188.058,,268.375,327.466,0,0
96254.716,,268.113,327.485,0,0
96321.371,,268.379,327.414,0,0
96388.032,,268.3,327.364,0,0
96454.692,,268.287,327.379,0,0
96521.344,,268.254,327.437,0,0
96588.005,,268.356,327.47,0,0
96654.663,,268.329,327.233,0,0
96721.32,,268.306,327.438,0,0
96787.982,,268.276,327.289,0,0
96854.635,,268.149,327.403,0,0
96921.292,,268.232,327.292,0,0
96987.954,,268.392,327.442,0,0
97054.613,,268.15,327.634,0,0
97121.268,,268.186,327.558,0,0
97187.929,,268.16,327.441,0,0
97254.588,,268.256,327.484,0,0
97321.241,,268.18,327.344,0,0
97387.898,,268.136,327.369,0,0
97454.559,,268.176,327.383,0,0
97521.215,,268.156,327.475,0,0
97587.877,,268.252,327.483,0,0
97654.535,,268.222,327.466,0,0
97721.193,,268.178,327.476,0,0
97787.852,,268.154,327.308,0,0
97854.505,,268.332,327.231,0,0
97921.167,,268.023,327.241,0,0
97987.821,,268.238,327.45,0,0
98054.482,,268.136,327.176,0,0
98121.138,,268.147,327.19,0,0
98187.797,,268.173,327.368,0,0
98254.456,,268.055,327.317,0,0
98321.109,,268.264,327.468,0,0
98387.771,,268.164,327.268,0,0
98454.428,,268.136,327.376,0,0
98521.089,,268.216,327.339,0,0
98587.743,,268.201,327.394,0,0
98654.403,,268.406,327.225,0,0
98721.061,,268.103,327.382,0,0
98787.718,,268.131,327.418,0,0
98854.375,,268.037,327.274,0,0
98921.037,,268.235,327.202,0,0
98987.692,,268.323,327.367,0,0
99054.347,,268.064,327.373,0,0
99121.009,,268.021,327.332,0,0
99187.664,,268.088,327.282,0,0
99254.326,,268.058,327.312,0,0
99320.979,,268.181,327.406,0,0
99387.642,,268.081,327.33,0,0
99454.296,,268.119,327.222,0,0
99520.955,,268.005,327.177,0,0
99587.611,,268.037,327.264,0,0
99654.268,,268.153,327.185,0,0
99720.93,,268.029,327.102,0,0
99787.585,,267.975,327.334,0,0
99854.249,,267.972,327.103,0,0
99920.906,,267.905,327.186,0,0
99987.564,,268.052,327.199,0,0
100054.219,,267.965,327.198,0,0
100120.88,,268.009,327.259,0,0
100187.535,,268.017,327.363,0,0
100254.194,,267.862,327.295,0,0
100320.855,,267.846,327.084,0,0
100387.511,,267.992,327.187,0,0
100454.168,,267.9,327.161,0,0
100520.827,,267.888,327.451,0,0
100587.481,,268.001,327.219,0,0
100654.144,,268.01,327.225,0,0
100720.799,,267.869,327.123,0,0
100787.455,,268.088,327.257,0,0
100854.115,,267.953,327.09,0,0
100920.776,,267.804,327.108,0,0
100987.427,,267.956,327.267,0,0
101054.091,,268.071,327.214,0,0
101120.746,,267.928,326.994,0,0
101187.402,,267.803,327.019,0,0
101254.064,,267.998,327.202,0,0
101320.722,,267.737,327.148,0,0
101387.379,,267.754,327.207,0,0
101454.035,,267.968,327.102,0,0
101520.692,,268.0,327.164,0,0
101587.349,,267.805,327.142,0,0
101654.012,,267.921,327.199,0,0
101720.668,,267.963,327.231,0,0
101787.326,,267.95,327.197,0,0
101853.982,,267.839,327.027,0,0
101920.642,,267.882,327.048,0,0
101987.303,,267.733,326.847,0,0
102053.956,,267.827,326.98,0,0
102120.615,,267.875,327.128,0,0
102187.277,,267.653,327.174,0,0
102253.931,,267.747,327.168,0,0
102320.593,,267.827,327.114,0,0
102387.249,,267.815,327.062,0,0
102453.909,,267.792,327.039,0,0
102520.564,,267.904,327.235,0,0
102587.224,,267.659,327.24,0,0
102653.881,,267.804,327.083,0,0
102720.538,,267.843,327.134,0,0
102787.194,,267.824,327.097,0,0
102853.851,,267.851,327.078,0,0
102920.512,,267.842,327.152,0,0
102987.168,,267.896,326.998,0,0
103053.83,,267.839,327.054,0,0
103120.488,,267.884,327.119,0,0
103187.142,,267.733,327.074,0,0
103253.801,,267.576,326.944,0,0
103320.457,,267.792,326.825,0,0
103387.119,,267.795,326.843,0,0
103453.777,,267.712,326.952,0,0
103520.432,,267.738,326.954,0,0
103587.092,,267.772,326.966,0,0
103653.749,,267.674,327.057,0,0
103720.41,,267.744,326.998,0,0
103787.065,,267.644,327.021,0,0
103853.721,,267.754,326.999,0,0
103920.377,,267.799,326.872,0,0
103987.04,,267.785,327.059,0,0
104053.696,,267.706,327.018,0,0
104120.353,,267.725,326.909,0,0
104187.01,,267.578,326.977,0,0
104253.665,,267.81,326.842,0,0
104320.324,,267.907,326.931,0,0
104386.981,,267.667,326.938,0,0
104453.642,,267.693,327.049,0,0
104520.299,,267.645,327.009,0,0
104586.959,,267.649,326.96,0,0
104653.615,,267.617,326.942,0,0
104720.27,,267.709,326.922,0,0
104786.932,,267.733,326.925,0,0
104853.587,,267.701,326.973,0,0
104920.242,,267.492,327.032,0,0
104986.901,,267.849,326.859,0,0
105053.56,,267.829,326.956,0,0
105120.217,,267.579,326.889,0,0
105186.873,,267.582,326.985,0,0
105253.533,,267.624,326.984,0,0
105320.188,,267.709,326.943,0,0
105386.85,,267.68,327.05,0,0
105453.505,,267.687,326.861,0,0
105520.162,,267.568,326.756,0,0
105586.819,,267.716,326.818,0,0
105653.475,,267.564,327.076,0,0
105720.133,,267.588,326.965,0,0
105786.795,,267.624,326.902,0,0
105853.451,,267.5,327.042,0,0
105920.106,,267.53,326.824,0,0
105986.764,,267.721,327.018,0,0
106053.422,,267.508,326.968,0,0
106120.081,,267.73,326.872,0,0
106186.734,,267.629,326.958,0,0
106253.395,,267.628,326.799,0,0
106320.052,,267.595,326.89,0,0
106386.713,,267.542,326.809,0,0
106453.371,,267.555,326.792,0,0
106520.024,,267.52,326.961,0,0
106586.685,,267.545,326.804,0,0
106653.338,,267.463,326.728,0,0
106719.995,,267.483,326.916,0,0
106786.658,,267.553,326.877,0,0
106853.315,,267.582,326.817,0,0
106919.97,,267.561,326.851,0,0
106986.628,,267.678,326.809,0,0
107053.288,,267.579,326.735,0,0
107119.944,,267.493,326.744,0,0
107186.604,,267.485,326.747,0,0
107253.256,,267.535,326.973,0,0
107319.914,,267.509,326.77,0,0
107386.574,,267.648,326.934,0,0
107453.232,,267.581,326.809,0,0
107519.889,,267.614,326.817,0,0
107586.545,,267.741,326.625,0,0
107653.201,,267.433,326.812,0,0
107719.86,,267.413,326.697,0,0
107786.518,,267.636,326.585,0,0
107853.178,,267.578,326.7,0,0
107919.835,,267.513,326.627,0,0
107986.489,,267.5,326.995,0,0
108053.15,,267.479,326.656,0,0
108119.806,,267.459,326.681,0,0
108186.461,,267.456,326.642,0,0
108253.124,,267.389,326.67,0,0
108319.776,,267.401,326.722,0,0
108386.437,,267.491,326.607,0,0
108453.097,,267.525,326.648,0,0
108519.754,,267.571,326.705,0,0
108586.407,,267.435,326.692,0,0
108653.069,,267.45,326.652,0,0
108719.727,,267.37,326.594,0,0
108786.385,,267.29,326.477,0,0
108853.042,,267.494,326.786,0,0
108919.701,,267.422,326.565,0,0
108986.358,,267.333,326.773,0,0
109053.009,,267.44,326.74,0,0
109119.673,,267.436,326.602,0,0
109186.33,,267.305,326.644,0,0
109252.986,,267.39,326.678,0,0
109319.646,,267.47,326.798,0,0
109386.301,,267.412,326.678,0,0
109452.956,,267.362,326.581,0,0
109519.616,,267.339,326.503,0,0
109586.269,,267.358,326.619,0,0
109652.928,,267.406,326.646,0,0
109719.587,,267.26,326.556,0,0
109786.246,,267.207,326.68,0,0
109852.906,,267.288,326.727,0,0
109919.558,,267.417,326.788,0,0
109986.22,,267.475,326.565,0,0
110052.875,,267.478,326.597,0,0
110119.534,,267.25,326.5,0,0
110186.19,,267.307,326.672,0,0
110252.85,,267.445,326.575,0,0
110319.509,,267.357,326.636,0,0
110386.165,,267.256,326.686,0,0
110452.821,,267.333,326.502,0,0
110519.48,,267.394,326.549,0,0
110586.138,,267.453,326.559,0,0
110652.789,,267.227,326.566,0,0
110719.453,,267.167,326.64,0,0
110786.111,,267.283,326.524,0,0
110852.766,,267.263,326.531,0,0
110919.423,,267.191,326.592,0,0
110986.082,,267.427,326.57,0,0
111052.737,,267.234,326.633,0,0
111119.399,,267.278,326.573,0,0
111186.05,,267.239,326.576,0,0
111252.709,,267.262,326.445,0,0
111319.365,,267.348,326.601,0,0
111386.025,,267.416,326.478,0,0
111452.681,,267.183,326.641,0,0
111519.343,,267.316,326.416,0,0
111585.997,,267.309,326.613,0,0
111652.656,,267.248,326.417,0,0
111719.311,,267.22,326.552,0,0
111785.969,,267.322,326.471,0,0
111852.629,,267.226,326.294,0,0
111919.287,,267.235,326.363,0,0
111985.944,,267.263,326.399,0,0
112052.601,,267.088,326.594,0,0
112119.261,,267.248,326.384,0,0
112185.919,,267.189,326.632,0,0
112252.576,,267.242,326.429,0,0
112319.235,,267.243,326.516,0,0
112385.894,,267.147,326.35,0,0
112452.553,,267.318,326.485,0,0
112519.207,,267.147,326.421,0,0
112585.87,,267.203,326.361,0,0
112652.529,,267.258,326.5,0,0
112719.183,,267.181,326.307,0,0
112785.841,,267.278,326.372,0,0
112852.504,,267.109,326.368,0,0
112919.156,,267.263,326.548,0,0
112985.815,,267.175,326.519,0,0
113052.473,,267.152,326.531,0,0
113119.133,,267.164,326.522,0,0
113185.792,,267.295,326.734,0,0
113252.45,,267.186,326.402,0,0
113319.111,,267.223,326.542,0,0
113385.765,,267.154,326.344,0,0
113452.422,,267.224,326.389,0,0
113519.086,,267.232,326.337,0,0
113585.742,,267.03,326.507,0,0
113652.398,,267.06,326.379,0,0
113719.058,,267.198,326.361,0,0
113785.719,,267.105,326.315,0,0
113852.374,,267.199,326.482,0,0
113919.036,,267.241,326.204,0,0
113985.69,,267.09,326.33,0,0
114052.353,,267.146,326.273,0,0
114119.008,,267.072,326.352,0,0
114185.669,,267.009,326.342,0,0
114252.325,,267.248,326.246,0,0
114318.984,,267.049,326.257,0,0
114385.638,,266.965,326.222,0,0
114452.297,,267.073,326.311,0,0
114518.961,,266.956,326.489,0,0
114585.618,,266.879,326.325,0,0
114652.271,,267.093,326.261,0,0
114718.934,,267.125,326.275,0,0
114785.593,,267.118,326.205,0,0
114852.247,,267.136,326.176,0,0
114918.909,,267.091,326.354,0,0
114985.566,,267.068,326.499,0,0
115052.223,,267.119,326.512,0,0
115118.885,,266.94,326.404,0,0
115185.543,,267.215,326.372,0,0
115252.199,,267.045,326.295,0,0
115318.855,,267.025,326.244,0,0
115385.516,,267.181,326.278,0,0
115452.176,,267.04,326.392,0,0
115518.833,,267.036,326.248,0,0
115585.49,,267.192,326.46,0,0
115652.149,,267.068,326.302,0,0
115718.809,,266.876,326.066,0,0
115785.462,,267.152,326.228,0,0
115852.122,,266.926,326.226,0,0
115918.782,,267.103,326.129,0,0
115985.439,,266.874,326.391,0,0
116052.097,,267.13,326.304,0,0
116118.757,,267.076,326.176,0,0
116185.414,,266.975,326.337,0,0
116252.07,,267.033,326.196,0,0
116318.729,,267.106,326.227,0,0
116385.392,,266.967,326.317,0,0
116452.05,,267.089,326.273,0,0
116518.707,,266.853,326.337,0,0
116585.365,,267.013,326.187,0,0
116652.02,,266.867,326.16,0,0
116718.679,,266.911,326.162,0,0
116785.339,,267.02,326.216,0,0
116851.998,,266.88,326.068,0,0
116918.656,,266.982,325.99,0,0
116985.314,,266.853,326.066,0,0
117051.972,,266.811,326.295,0,0
117118.632,,267.03,326.296,0,0
117185.289,,266.904,326.28,0,0
117251.948,,266.951,326.204,0,0
117318.603,,266.955,326.109,0,0
117385.264,,267.001,326.13,0,0
117451.919,,267.038,326.221,0,0
117518.582,,266.846,326.219,0,0
117585.24,,266.87,326.166,0,0
117651.894,,267.019,326.046,0,0
117718.552,,266.907,326.01,0,0
117785.216,,266.817,326.145,0,0
117851.87,,266.801,326.064,0,0
117918.527,,266.981,325.942,0,0
117985.186,,266.878,326.068,0,0
118051.843,,266.874,326.05,0,0
118118.507,,267.089,326.225,0,0
118185.161,,266.848,326.166,0,0
118251.822,,266.882,326.108,0,0
118318.479,,267.043,326.194,0,0
118385.139,,266.926,325.882,0,0
118451.795,,266.857,325.992,0,0
118518.454,,266.87,326.067,0,0
118585.114,,266.852,326.19,0,0
118651.773,,266.833,326.09,0,0
118718.426,,266.795,326.076,0,0
118785.09,,266.781,326.149,0,0
118851.742,,266.677,326.104,0,0
118918.401,,266.713,326.098,0,0
118985.06,,266.706,326.125,0,0
119051.72,,266.925,325.997,0,0
119118.38,,266.611,325.968,0,0
119185.036,,266.954,325.987,0,0
119251.698,,266.905,325.988,0,0
119318.35,,266.653,326.117,0,0
119385.009,,266.703,326.089,0,0
119451.668,,266.681,326.05,0,0
119518.326,,266.587,325.872,0,0
119584.988,,266.839,325.97,0,0
119651.644,,266.825,325.874,0,0
119718.305,,266.696,325.953,0,0
119784.96,,266.721,325.999,0,0
119851.619,,266.628,325.86,0,0
119918.277,,266.719,325.971,0,0
119984.938,,266.732,325.861,0,0
120051.594,,266.849,325.995,0,0
120118.251,,266.857,325.955,0,0
120184.906,,266.859,326.038,0,0
120251.566,,266.837,325.973,0,0
120318.223,,266.68,326.128,0,0
120384.88,,266.762,326.033,0,0
120451.535,,266.664,325.901,0,0
120518.198,,266.794,325.844,0,0
120584.854,,266.735,325.847,0,0
120651.51,,266.644,325.859,0,0
120718.171,,266.656,325.861,0,0
120784.83,,266.619,325.872,0,0
120851.482,,266.562,325.888,0,0
120918.142,,266.679,325.85,0,0
120984.797,,266.642,325.767,0,0
121051.459,,266.682,326.003,0,0
121118.114,,266.778,326.072,0,0
121184.772,,266.573,325.89,0,0
121251.429,,266.688,325.921,0,0
121318.088,,266.797,325.891,0,0
121384.743,,266.657,325.856,0,0
121451.399,,266.78,325.745,0,0
121518.059,,266.629,325.877,0,0
121584.718,,266.763,325.863,0,0
121651.376,,266.734,325.73,0,0
121718.033,,266.738,326.009,0,0
121784.693,,266.544,325.955,0,0
121851.345,,266.65,325.975,0,0
121918.005,,266.633,325.623,0,0
121984.666,,266.533,325.69,0,0
122051.323,,266.536,325.956,0,0
122117.978,,266.602,325.777,0,0
122184.632,,266.636,325.876,0,0
122251.295,,266.526,325.873,0,0
122317.953,,266.641,325.844,0,0
122384.611,,266.729,325.781,0,0
122451.264,,266.441,325.85,0,0
122517.926,,266.712,325.765,0,0
122584.584,,266.414,325.791,0,0
122651.239,,266.78,325.754,0,0
122717.899,,266.562,325.919,0,0
122784.554,,266.539,325.803,0,0
122851.212,,266.508,325.73,0,0
122917.869,,266.453,325.749,0,0
122984.524,,266.464,325.829,0,0
123051.185,,266.422,325.691,0,0
123117.841,,266.779,325.901,0,0
123184.499,,266.647,325.839,0,0
123251.16,,266.551,325.678,0,0
123317.813,,266.502,325.899,0,0
123384.47,,266.556,325.707,0,0
123451.128,,266.565,325.665,0,0
123517.79,,266.477,325.747,0,0
123584.441,,266.463,325.719,0,0
123651.102,,266.567,325.739,0,0
123717.756,,266.504,325.788,0,0
123784.42,,266.45,325.776,0,0
123851.072,,266.524,325.781,0,0
123917.731,,266.398,325.719,0,0
123984.392,,266.486,325.662,0,0
124051.05,,266.464,325.852,0,0
124117.708,,266.578,325.718,0,0
124184.364,,266.534,325.734,0,0
124251.017,,266.451,325.674,0,0
124317.679,,266.59,325.54,0,0
124384.336,,266.484,325.575,0,0
124450.992,,266.386,325.649,0,0
124517.652,,266.407,325.628,0,0
124584.307,,266.525,325.64,0,0
124650.964,,266.463,325.683,0,0
124717.622,,266.354,325.446,0,0
124784.278,,266.429,325.626,0,0
124850.94,,266.403,325.649,0,0
124917.594,,266.439,325.586,0,0
124984.251,,266.41,325.691,0,0
125050.91,,266.437,325.716,0,0
125117.569,,266.548,325.767,0,0
125184.226,,266.485,325.592,0,0
125250.885,,266.34,325.777,0,0
125317.542,,266.449,325.731,0,0
125384.2,,266.283,325.664,0,0
125450.856,,266.448,325.692,0,0
125517.514,,266.491,325.711,0,0
125584.168,,266.378,325.456,0,0
125650.828,,266.431,325.764,0,0
125717.488,,266.496,325.487,0,0
125784.142,,266.535,325.705,0,0
125850.8,,266.247,325.676,0,0
125917.461,,266.365,325.62,0,0
125984.113,,266.578,325.632,0,0
126050.774,,266.338,325.659,0,0
126117.431,,266.449,325.675,0,0
126184.09,,266.316,325.643,0,0
126250.749,,266.5,325.772,0,0
126317.403,,266.338,325.598,0,0
126384.06,,266.202,325.695,0,0
126450.72,,266.406,325.747,0,0
126517.376,,266.555,325.595,0,0
126584.036,,266.463,325.665,0,0
126650.693,,266.337,325.589,0,0
126717.352,,266.386,325.609,0,0
126784.005,,266.238,325.366,0,0
126850.661,,266.43,325.575,0,0
126917.32,,266.331,325.588,0,0
126983.978,,266.514,325.638,0,0
127050.637,,266.31,325.639,0,0
127117.292,,266.488,325.47,0,0
127183.952,,266.359,325.565,0,0
127250.606,,266.369,325.445,0,0
127317.268,,266.408,325.525,0,0
127383.923,,266.239,325.647,0,0
127450.581,,266.309,325.589,0,0
127517.241,,266.503,325.555,0,0
127583.9,,266.517,325.561,0,0
127650.557,,266.233,325.573,0,0
127717.21,,266.445,325.634,0,0
127783.873,,266.296,325.638,0,0
127850.528,,266.211,325.439,0,0
127917.186,,266.334,325.315,0,0
127983.844,,266.349,325.444,0,0
128050.498,,266.41,325.511,0,0
128117.16,,266.119,325.473,0,0
128183.82,,266.259,325.741,0,0
128250.475,,266.238,325.586,0,0
128317.136,,266.291,325.598,0,0
128383.796,,266.322,325.517,0,0
128450.452,,266.262,325.546,0,0
128517.111,,266.228,325.495,0,0
128583.77,,266.264,325.515,0,0
128650.43,,266.342,325.47,0,0
128717.084,,266.275,325.397,0,0
128783.744,,266.251,325.471,0,0
128850.404,,266.362,325.332,0,0
128917.059,,266.174,325.53,0,0
128983.716,,266.269,325.574,0,0
129050.379,,266.245,325.493,0,0
129117.033,,266.133,325.604,0,0
129183.694,,266.42,325.641,0,0
129250.354,,266.413,325.64,0,0
129317.012,,266.25,325.412,0,0
129383.665,,266.273,325.324,0,0
129450.324,,266.289,325.472,0,0
129516.984,,266.352,325.6,0,0
129583.641,,266.234,325.496,0,0
129650.303,,266.287,325.473,0,0
129716.963,,266.255,325.471,0,0
129783.617,,266.131,325.532,0,0
129850.275,,266.262,325.365,0,0
129916.936,,266.088,325.568,0,0
129983.591,,266.296,325.225,0,0
130050.254,,266.345,325.538,0,0
130116.908,,266.171,325.554,0,0
130183.569,,266.179,325.331,0,0
130250.223,,266.299,325.293,0,0
130316.883,,266.224,325.495,0,0
130383.543,,266.184,325.473,0,0
130450.203,,266.356,325.381,0,0
130516.86,,266.339,325.444,0,0
130583.518,,266.087,325.406,0,0
130650.177,,266.242,325.378,0,0
130716.835,,266.241,325.491,0,0
130783.49,,266.186,325.316,0,0
130850.148,,266.227,325.435,0,0
130916.808,,266.179,325.506,0,0
130983.47,,266.138,325.583,0,0
131050.124,,266.145,325.394,0,0
131116.785,,266.208,325.368,0,0
131183.441,,266.201,325.36,0,0
131250.104,,266.229,325.299,0,0
131316.76,,266.054,325.306,0,0
131383.419,,266.123,325.29,0,0
131450.073,,266.184,325.496,0,0
131516.736,,266.197,325.362,0,0
131583.395,,266.14,325.302,0,0
131650.049,,266.065,325.475,0,0
131716.711,,266.225,325.37,0,0
131783.371,,266.224,325.449,0,0
131850.029,,266.161,325.396,0,0
131916.683,,266.153,325.212,0,0
131983.344,,265.992,325.298,0,0
132049.998,,266.266,325.258,0,0
132116.658,,266.109,325.433,0,0
132183.318,,266.164,325.265,0,0
132249.975,,266.091,325.397,0,0
132316.635,,265.996,325.466,0,0
132383.294,,266.13,325.149,0,0
132449.952,,266.116,325.263,0,0
132516.612,,266.134,325.284,0,0
132583.27,,266.155,325.371,0,0
132649.927,,266.177,325.357,0,0
132716.581,,266.206,325.111,0,0
132783.242,,266.217,325.195,0,0
132849.901,,266.012,325.399,0,0
132916.56,,266.186,325.3,0,0
132983.221,,266.153,325.132,0,0
133049.875,,265.95,325.268,0,0
133116.533,,266.208,325.37,0,0
133183.194,,266.064,325.425,0,0
133249.849,,266.041,325.295,0,0
133316.508,,266.144,325.348,0,0
133383.169,,266.15,325.12,0,0
133449.827,,266.055,325.267,0,0
133516.485,,266.061,325.317,0,0
133583.142,,265.982,325.258,0,0
133649.799,,265.834,325.377,0,0
133716.458,,266.142,325.452,0,0
133783.118,,266.003,325.304,0,0
133849.779,,265.987,325.415,0,0
133916.432,,266.082,325.309,0,0
133983.092,,265.927,325.302,0,0
134049.752,,265.965,325.146,0,0
134116.41,,266.003,325.347,0,0
134183.069,,265.974,325.374,0,0
134249.729,,265.957,325.334,0,0
134316.384,,265.95,325.344,0,0
134383.044,,266.012,325.312,0,0
134449.702,,265.943,325.168,0,0
134516.357,,266.024,325.456,0,0
134583.015,,266.01,325.267,0,0
134649.678,,266.127,325.28,0,0
134716.338,,266.007,325.171,0,0
134782.991,,266.111,325.228,0,0
134849.649,,265.995,325.235,0,0
134916.307,,266.172,325.163,0,0
134982.967,,265.966,325.28,0,0
135049.626,,266.018,325.377,0,0
135116.281,,266.013,325.273,0,0
135182.941,,265.985,325.383,0,0
135249.602,,266.162,325.265,0,0
135316.263,,265.909,325.229,0,0
135382.918,,266.097,325.312,0,0
135449.577,,265.956,325.238,0,0
135516.236,,266.012,325.247,0,0
135582.894,,265.859,325.159,0,0
135649.553,,266.016,325.233,0,0
135716.207,,266.103,325.383,0,0
135782.868,,265.937,325.091,0,0
135849.528,,265.931,325.137,0,0
135916.182,,266.052,325.236,0,0
135982.845,,265.884,325.234,0,0
136049.497,,265.881,325.27,0,0
136116.159,,265.994,325.067,0,0
136182.815,,265.837,325.201,0,0
136249.473,,265.92,325.425,0,0
136316.127,,266.025,325.193,0,0
136382.79,,266.0,325.224,0,0
136449.449,,265.935,325.262,0,0
136516.101,,266.144,325.168,0,0
136582.758,,265.99,325.354,0,0
136649.421,,266.004,325.514,0,0
136716.078,,265.896,325.302,0,0
136782.733,,265.875,325.272,0,0
136849.39,,265.813,325.196,0,0
136916.047,,265.96,325.171,0,0
136982.706,,265.893,325.232,0,0
137049.365,,266.012,325.217,0,0
137116.02,,265.913,325.225,0,0
137182.677,,265.812,325.193,0,0
137249.34,,265.928,325.219,0,0
137315.995,,265.939,325.102,0,0
137382.653,,265.988,325.142,0,0
137449.312,,266.089,325.159,0,0
137515.969,,265.952,325.278,0,0
137582.625,,265.994,325.191,0,0
137649.285,,265.872,325.262,0,0
137715.94,,265.797,325.314,0,0
137782.601,,265.936,325.176,0,0
137849.259,,265.958,325.113,0,0
137915.911,,265.925,325.231,0,0
137982.575,,265.997,325.361,0,0
138049.227,,265.839,325.121,0,0
138115.885,,265.963,325.126,0,0
138182.542,,265.853,325.158,0,0
138249.203,,265.85,325.127,0,0
138315.858,,265.992,325.098,0,0
138382.518,,265.926,325.264,0,0
138449.178,,265.87,325.163,0,0
138515.83,,265.835,325.207,0,0
138582.489,,265.866,325.218,0,0
138649.145,,265.979,325.105,0,0
138715.802,,265.845,325.222,0,0
138782.466,,265.895,325.175,0,0
138849.119,,265.709,325.242,0,0
138915.779,,265.881,325.034,0,0
138982.437,,265.847,325.133,0,0
139049.091,,265.833,325.032,0,0
139115.749,,266.01,325.225,0,0
139182.41,,265.81,325.257,0,0
139249.069,,265.648,325.14,0,0
139315.72,,265.944,324.981,0,0
139382.382,,265.78,325.192,0,0
139449.041,,265.819,325.18,0,0
139515.696,,265.66,325.046,0,0
139582.354,,265.829,325.103,0,0
139649.011,,265.896,325.072,0,0
139715.67,,265.916,325.048,0,0
139782.33,,265.728,325.133,0,0
139848.985,,265.796,325.185,0,0
139915.645,,265.812,325.032,0,0
139982.301,,265.772,325.084,0,0
140048.958,,265.854,325.072,0,0
140115.617,,265.785,325.109,0,0
140182.27,,265.663,325.007,0,0
140248.928,,265.882,325.165,0,0
140315.588,,266.036,325.033,0,0
140382.245,,265.814,325.154,0,0
140448.9,,265.85,325.136,0,0
140515.558,,265.809,325.16,0,0
140582.218,,265.702,325.15,0,0
140648.876,,265.95,325.012,0,0
140715.534,,265.819,325.221,0,0
140782.193,,265.655,324.952,0,0
140848.852,,265.64,325.003,0,0
140915.504,,265.768,325.008,0,0
140982.166,,265.682,325.038,0,0
141048.824,,265.801,325.077,0,0
141115.479,,265.806,325.081,0,0
141182.14,,265.778,325.045,0,0
141248.796,,265.73,325.177,0,0
141315.454,,265.942,325.112,0,0
141382.11,,265.889,325.103,0,0
141448.766,,265.693,325.002,0,0
141515.425,,265.799,325.143,0,0
141582.079,,265.722,324.958,0,0
