TimeStamp,Lights,Channel1
0.000,410,297.034
33.334,470,354.889
66.661,410,296.631
99.995,470,354.646
133.328,410,296.360
166.665,470,354.372
199.997,410,296.086
233.329,470,353.968
266.662,410,295.934
299.995,470,353.510
333.329,410,295.389
366.662,470,352.810
400.000,410,295.230
433.330,470,352.445
466.667,410,294.817
499.996,470,352.124
533.329,410,294.378
566.664,470,351.743
600.001,410,294.148
633.332,470,351.522
666.666,410,294.058
700.000,470,351.310
733.332,410,293.766
766.667,470,351.066
800.000,410,293.592
833.330,470,350.873
866.665,410,293.210
899.994,470,350.854
933.332,410,293.359
966.663,470,350.524
999.999,410,293.103
1033.331,470,350.300
1066.663,410,292.925
1099.999,470,350.200
1133.333,410,292.604
1166.663,470,349.788
1199.996,410,292.666
1233.329,470,349.531
1266.662,410,292.391
1299.997,470,349.426
1333.334,410,292.348
1366.664,470,349.257
1399.995,410,292.056
1433.332,470,349.011
1466.664,410,291.855
1500.001,470,348.979
1533.332,410,291.737
1566.666,470,348.659
1599.998,410,291.742
1633.334,470,348.590
1666.666,410,291.568
1699.996,470,348.584
1733.331,410,291.485
1766.664,470,348.679
1799.995,410,291.468
1833.332,470,348.501
1866.664,410,291.491
1899.997,470,348.749
1933.332,410,291.621
1966.664,470,348.484
2000.000,410,291.404
2033.331,470,348.329
2066.665,410,291.447
2099.999,470,348.433
2133.328,410,291.374
2166.666,470,348.324
2199.995,410,291.433
2233.333,470,348.420
2266.661,410,291.305
2299.997,470,348.135
2333.329,410,291.183
2366.667,470,347.947
2399.994,410,291.152
2433.331,470,348.005
2466.668,410,291.079
2499.996,470,347.981
2533.333,410,291.043
2566.664,470,348.001
2599.998,410,290.920
2633.333,470,347.732
2666.663,410,290.917
2699.999,470,347.903
2733.329,410,290.611
2766.665,470,347.630
2800.001,410,290.659
2833.330,470,347.558
2866.662,410,290.631
2899.998,470,347.599
2933.334,410,290.685
2966.661,470,347.423
3000.000,410,290.514
3033.334,470,347.678
3066.662,410,290.497
3099.996,470,347.533
3133.333,410,290.419
3166.663,470,347.295
3199.997,410,290.538
3233.334,470,347.136
3266.662,410,290.395
3299.997,470,347.078
3333.333,410,290.271
3366.667,470,347.260
3399.995,410,290.327
3433.333,470,347.187
3466.667,410,290.132
3499.995,470,346.980
3533.329,410,289.991
3566.664,470,346.942
3600.000,410,289.860
3633.332,470,347.082
3666.664,410,289.878
3699.998,470,346.821
3733.329,410,289.970
3766.661,470,346.993
3799.997,410,289.856
3833.333,470,346.795
3866.664,410,289.766
3899.998,470,346.669
3933.329,410,289.771
3966.665,470,346.744
3999.995,410,289.738
4033.334,470,346.502
4066.667,410,289.791
4099.999,470,346.611
4133.333,410,289.759
4166.666,470,346.539
4199.997,410,289.629
4233.334,470,346.466
4266.666,410,289.374
4299.996,470,346.271
4333.333,410,289.456
4366.661,470,346.192
4399.999,410,289.409
4433.329,470,346.449
4466.661,410,289.389
4499.996,470,346.097
4533.330,410,289.348
4566.664,470,346.312
4600.000,410,289.193
4633.330,470,346.173
4666.666,410,289.285
4699.996,470,346.292
4733.330,410,289.206
4766.664,470,346.134
4800.000,410,289.112
4833.333,470,346.145
4866.663,410,288.995
4899.996,470,346.214
4933.332,410,289.158
4966.665,470,346.008
5000.001,410,288.919
5033.330,470,345.908
5066.667,410,288.967
5099.999,470,345.993
5133.328,410,288.901
5166.664,470,345.859
5200.000,410,289.036
5233.331,470,345.738
5266.664,410,288.927
5300.000,470,345.751
5333.332,410,288.865
5366.663,470,345.671
5399.995,410,288.764
5433.334,470,345.682
5466.668,410,288.790
5499.998,470,345.721
5533.334,410,288.752
5566.662,470,345.739
5599.997,410,288.568
5633.333,470,345.643
5666.667,410,288.482
5699.997,470,345.500
5733.334,410,288.549
5766.662,470,345.626
5800.000,410,288.565
5833.332,470,345.686
5866.667,410,288.546
5899.999,470,345.450
5933.332,410,288.392
5966.663,470,345.346
5999.995,410,288.380
6033.330,470,345.400
6066.668,410,288.485
6100.000,470,345.470
6133.332,410,288.405
6166.666,470,345.318
6199.996,410,288.308
6233.333,470,345.435
6266.662,410,288.298
6300.001,470,345.329
6333.329,410,288.275
6366.662,470,345.144
6399.995,410,288.206
6433.334,470,344.985
6466.667,410,288.064
6500.001,470,345.080
6533.333,410,288.206
6566.664,470,345.175
6599.997,410,287.882
6633.329,470,345.087
6666.667,410,287.985
6699.995,470,345.039
6733.333,410,287.916
6766.663,470,345.107
6799.995,410,287.850
6833.330,470,344.945
6866.666,410,287.888
6899.997,470,344.960
6933.330,410,287.770
6966.662,470,344.974
7000.001,410,287.705
7033.331,470,344.782
7066.662,410,287.861
7099.999,470,345.103
7133.334,410,287.831
7166.666,470,344.939
7200.001,410,287.803
7233.332,470,344.819
7266.662,410,287.927
7299.999,470,344.715
7333.333,410,287.586
7366.667,470,344.763
7399.996,410,287.733
7433.329,470,344.822
7466.667,410,287.749
7500.001,470,344.644
7533.334,410,287.520
7566.662,470,344.470
7599.997,410,287.641
7633.333,470,344.554
7666.665,410,287.680
7699.999,470,344.565
7733.328,410,287.646
7766.665,470,344.725
7799.995,410,287.407
7833.333,470,344.651
7866.663,410,287.633
7899.996,470,344.413
7933.334,410,287.448
7966.666,470,344.322
8000.000,410,287.322
8033.329,470,344.392
8066.665,410,287.326
8099.995,470,344.352
8133.333,410,287.315
8166.662,470,344.265
8199.998,410,287.271
8233.330,470,344.460
8266.666,410,287.264
8299.996,470,344.157
8333.334,410,287.305
8366.667,470,344.258
8400.000,410,287.297
8433.329,470,344.362
8466.667,410,287.235
8499.996,470,344.219
8533.330,410,287.198
8566.662,470,344.263
8600.001,410,287.106
8633.328,470,344.199
8666.662,410,287.161
8699.995,470,344.238
8733.334,410,287.110
8766.665,470,344.104
8800.000,410,286.955
8833.334,470,344.044
8866.661,410,287.197
8900.000,470,344.123
8933.332,410,286.921
8966.666,470,344.033
8999.995,410,287.050
9033.334,470,343.960
9066.664,410,286.898
9100.000,470,344.129
9133.333,410,286.862
9166.665,470,344.179
9199.996,410,286.875
9233.333,470,343.886
9266.663,410,286.873
9300.001,470,344.151
9333.329,410,286.745
9366.668,470,343.837
9399.999,410,286.712
9433.335,470,343.828
9466.663,410,286.688
9499.996,470,344.023
9533.331,410,286.723
9566.666,470,343.767
9600.000,410,286.797
9633.329,470,343.790
9666.666,410,286.644
9700.000,470,343.776
9733.329,410,286.712
9766.663,470,343.821
9800.001,410,286.672
9833.328,470,343.714
9866.664,410,286.595
9899.999,470,343.642
9933.331,410,286.520
9966.665,470,343.806
9999.995,410,286.531
10033.328,470,343.814
10066.662,410,286.506
10099.995,470,343.603
10133.332,410,286.516
10166.664,470,343.603
10199.996,410,286.466
10233.332,470,343.676
10266.667,410,286.410
10299.995,470,343.518
10333.329,410,286.443
10366.665,470,343.610
10399.999,410,286.526
10433.329,470,343.481
10466.665,410,286.276
10499.997,470,343.438
10533.330,410,286.453
10566.667,470,343.429
10599.996,410,286.328
10633.330,470,343.396
10666.663,410,286.182
10699.994,470,343.260
10733.329,410,286.330
10766.662,470,343.611
10800.000,410,286.086
10833.331,470,343.316
10866.666,410,286.185
10899.998,470,343.279
10933.333,410,286.068
10966.663,470,343.241
10999.999,410,286.116
11033.331,470,343.246
11066.665,410,286.116
11100.001,470,343.519
11133.330,410,286.251
11166.666,470,343.284
11199.997,410,286.120
11233.328,470,343.360
11266.663,410,286.059
11299.999,470,343.062
11333.334,410,286.153
11366.663,470,343.228
11400.000,410,285.938
11433.331,470,343.059
11466.666,410,285.908
11499.999,470,343.134
11533.331,410,286.037
11566.664,470,343.089
11600.001,410,286.222
11633.331,470,342.898
11666.666,410,285.958
11700.000,470,343.221
11733.328,410,285.816
11766.665,470,343.004
11799.995,410,285.813
11833.330,470,342.957
11866.666,410,285.718
11899.996,470,342.906
11933.333,410,285.975
11966.665,470,343.031
12000.001,410,285.635
12033.329,470,342.998
12066.666,410,285.803
12099.999,470,342.949
12133.330,410,285.760
12166.661,470,342.943
12199.996,410,285.542
12233.329,470,342.894
12266.662,410,285.580
12300.000,470,342.918
12333.328,410,285.555
12366.662,470,342.738
12399.999,410,285.695
12433.329,470,342.840
12466.667,410,285.700
12499.998,470,343.103
12533.329,410,285.736
12566.667,470,342.846
12599.995,410,285.721
12633.334,470,342.774
12666.667,410,285.528
12699.998,470,342.737
12733.332,410,285.410
12766.667,470,342.921
12799.996,410,285.472
12833.332,470,342.722
12866.666,410,285.366
12900.001,470,342.898
12933.332,410,285.524
12966.665,470,342.759
12999.998,410,285.517
13033.330,470,342.721
13066.664,410,285.525
13099.998,470,342.699
13133.334,410,285.249
13166.665,470,342.805
13200.000,410,285.302
13233.331,470,342.471
13266.662,410,285.382
13299.997,470,342.583
13333.332,410,285.354
13366.667,470,342.377
13399.995,410,285.361
13433.333,470,342.588
13466.664,410,285.295
13499.997,470,342.515
13533.328,410,285.230
13566.666,470,342.577
13599.995,410,285.150
13633.333,470,342.473
13666.663,410,285.218
13699.995,470,342.526
13733.334,410,285.274
13766.662,470,342.498
13800.000,410,285.252
13833.329,470,342.493
13866.665,410,285.086
13899.997,470,342.412
13933.333,410,285.125
13966.665,470,342.476
14000.001,410,285.190
14033.330,470,342.606
14066.667,410,285.110
14099.998,470,342.476
14133.334,410,285.073
14166.665,470,342.508
14199.996,410,284.940
14233.333,470,342.387
14266.663,410,285.064
14299.997,470,342.445
14333.330,410,285.117
14366.662,470,342.495
14399.996,410,285.066
14433.330,470,342.388
14466.663,410,284.943
14499.999,470,342.298
14533.330,410,284.810
14566.662,470,342.262
14600.000,410,284.991
14633.328,470,342.256
14666.665,410,284.840
14699.995,470,342.145
14733.333,410,284.892
14766.664,470,342.171
14800.000,410,284.831
14833.328,470,342.440
14866.665,410,284.889
14899.998,470,342.057
14933.330,410,284.651
14966.668,470,342.271
14999.997,410,284.872
15033.333,470,342.213
15066.664,410,284.858
15100.001,470,342.210
15133.330,410,284.891
15166.666,470,342.120
15200.001,410,284.856
15233.332,470,342.142
15266.665,410,284.945
15299.997,470,342.005
15333.330,410,284.834
15366.666,470,342.045
15399.996,410,284.707
15433.331,470,342.085
15466.662,410,284.618
15499.997,470,342.023
15533.333,410,284.519
15566.668,470,342.037
15599.996,410,284.504
15633.329,470,342.243
15666.661,410,284.836
15700.001,470,342.118
15733.329,410,284.777
15766.667,470,342.081
15800.000,410,284.696
15833.332,470,342.054
15866.666,410,284.576
15900.000,470,342.122
15933.329,410,284.608
15966.663,470,341.939
15999.988,410,284.471
16033.318,470,341.930
16066.638,410,284.657
16099.975,470,341.835
16133.287,410,284.466
16166.626,470,341.904
16199.941,410,284.621
16233.282,470,341.941
16266.593,410,284.560
16299.936,470,342.053
16333.251,410,284.554
16366.589,470,342.094
16399.898,410,284.595
16433.249,470,342.052
16466.556,410,284.412
16499.899,470,341.846
16533.202,410,284.500
16566.552,470,341.951
16599.857,410,284.448
16633.205,470,341.979
16666.511,410,284.606
16699.862,470,341.730
16733.158,410,284.558
16766.516,470,341.751
16799.811,410,284.590
16833.172,470,341.883
16866.467,410,284.497
16899.823,470,341.810
16933.118,410,284.385
16966.473,470,341.797
16999.763,410,284.340
17033.126,470,341.801
17066.419,410,284.442
17099.785,470,341.669
17133.072,410,284.290
17166.437,470,341.759
17199.723,410,284.155
17233.090,470,341.864
17266.369,410,284.252
17299.743,470,341.736
17333.023,410,284.277
17366.395,470,341.541
17399.674,410,284.156
17433.043,470,341.617
17466.325,410,283.999
17499.696,470,341.395
17532.971,410,283.865
17566.348,470,341.526
17599.624,410,283.881
17633.007,470,341.392
17666.274,410,284.039
17699.657,470,341.680
17732.924,410,283.880
17766.307,470,341.454
17799.576,410,283.772
17832.963,470,341.256
17866.224,410,283.565
17899.612,470,340.980
17932.876,410,282.689
17966.264,470,339.909
17999.520,410,282.184
18032.918,470,339.742
18066.170,410,282.313
18099.568,470,339.751
18132.820,410,282.243
18166.220,470,339.728
18199.471,410,282.114
18232.868,470,339.598
18266.123,410,282.011
18299.519,470,339.614
18332.772,410,282.125
18366.175,470,339.552
18399.416,410,281.990
18432.826,470,339.499
18466.067,410,281.932
18499.476,470,339.241
18532.719,410,281.988
18566.124,470,339.374
18599.364,410,281.751
18632.780,470,339.224
18666.014,410,281.791
18699.429,470,339.409
18732.665,410,282.041
18766.083,470,339.471
18799.308,410,281.901
18832.732,470,339.259
18865.958,410,281.902
18899.382,470,339.702
18932.606,410,282.022
18966.032,470,339.487
18999.257,410,281.806
19032.682,470,339.677
19065.904,410,282.024
19099.335,470,339.466
19132.550,410,281.952
19165.981,470,339.403
19199.200,410,281.917
19232.635,470,339.446
19265.847,410,281.958
19299.281,470,339.357
19332.493,410,281.922
19365.931,470,339.493
19399.140,410,281.794
19432.581,470,339.310
19465.786,410,281.803
19499.232,470,339.339
19532.431,410,281.855
19565.877,470,339.286
19599.081,410,281.646
19632.530,470,339.182
19665.724,410,281.778
19699.177,470,339.423
19732.372,410,281.756
19765.826,470,339.296
19799.023,410,281.718
19832.479,470,339.402
19865.669,410,281.654
19899.129,470,339.320
19932.311,410,281.797
19965.772,470,339.228
19998.963,410,281.709
20032.424,470,339.209
20065.603,410,281.716
20099.075,470,339.166
20132.255,410,281.647
20165.718,470,339.191
20198.899,410,281.642
20232.367,470,339.223
20265.543,410,281.657
20299.018,470,339.140
20332.187,410,281.666
20365.664,470,339.327
20398.835,410,281.667
20432.312,470,339.277
20465.479,410,281.751
20498.965,470,339.326
20532.126,410,281.622
20565.611,470,339.269
20598.769,410,281.697
20632.258,470,339.370
20665.417,410,281.555
20698.907,470,339.410
20732.058,410,281.654
20765.555,470,339.053
20798.704,410,281.602
20832.203,470,339.464
20865.348,410,281.656
20898.848,470,339.245
20931.997,410,281.592
20965.498,470,339.350
20998.637,410,281.599
21032.142,470,339.328
21065.282,410,281.429
21098.791,470,339.124
21131.928,410,281.457
21165.439,470,339.098
21198.574,410,281.439
21232.084,470,339.118
21265.216,410,281.494
21298.731,470,339.220
21331.862,410,281.470
21365.379,470,339.253
21398.502,410,281.310
21432.027,470,339.021
21465.150,410,281.292
21498.672,470,339.029
21531.791,410,281.203
21565.322,470,339.129
21598.435,410,281.350
21631.966,470,339.118
21665.076,410,281.512
21698.611,470,339.032
21731.722,410,281.384
21765.257,470,339.029
21798.367,410,281.244
21831.905,470,338.997
21865.005,410,281.116
21898.553,470,338.967
21931.653,410,281.387
21965.200,470,338.925
21998.293,410,281.291
22031.844,470,339.171
22064.938,410,281.287
22098.485,470,338.828
22131.581,410,281.135
22165.131,470,338.800
22198.223,410,281.301
22231.781,470,338.996
22264.861,410,281.120
22298.428,470,338.801
22331.506,410,281.079
22365.072,470,338.774
22398.151,410,281.194
22431.712,470,338.706
22464.792,410,281.152
22498.362,470,338.724
22531.432,410,281.109
22565.006,470,338.875
22598.073,410,281.144
22631.652,470,338.663
22664.714,410,280.950
22698.299,470,338.684
22731.358,410,281.006
22764.942,470,338.771
22797.996,410,281.089
22831.587,470,338.899
22864.643,410,281.025
22898.227,470,338.748
22931.280,410,280.998
22964.871,470,338.808
22997.922,410,280.962
23031.518,470,338.826
23064.560,410,281.059
23098.163,470,338.764
23131.205,410,280.903
23164.806,470,338.727
23197.845,410,280.970
23231.452,470,338.522
23264.483,410,280.911
23298.094,470,338.593
23331.124,410,280.991
23364.738,470,338.602
23397.765,410,280.882
23431.384,470,338.698
23464.409,410,280.915
23498.023,470,338.688
23531.045,410,280.788
23564.670,470,338.515
23597.689,410,280.885
23631.310,470,338.734
23664.331,410,280.820
23697.955,470,338.667
23730.970,410,280.717
23764.599,470,338.541
23797.606,410,280.917
23831.243,470,338.417
23864.246,410,280.742
23897.888,470,338.396
23930.884,410,280.922
23964.529,470,338.562
23997.547,410,280.762
24031.183,470,338.597
24064.202,410,280.743
24097.845,470,338.501
24130.860,410,280.730
24164.502,470,338.581
24197.519,410,280.708
24231.159,470,338.467
24264.180,410,280.787
24297.818,470,338.664
24330.836,410,280.715
24364.470,470,338.539
24397.495,410,280.726
24431.129,470,338.439
24464.149,410,280.635
24497.788,470,338.697
24530.812,410,280.665
24564.444,470,338.411
24597.471,410,280.549
24631.101,470,338.448
24664.125,410,280.492
24697.761,470,338.511
24730.783,410,280.500
24764.414,470,338.560
24797.440,410,280.529
24831.074,470,338.526
24864.098,410,280.597
24897.731,470,338.474
24930.762,410,280.357
24964.390,470,338.344
24997.417,410,280.527
25031.046,470,338.268
25064.074,410,280.659
25097.705,470,338.219
25130.730,410,280.528
25164.358,470,338.424
25197.390,410,280.407
25231.020,470,338.154
25264.053,410,280.618
25297.674,470,338.296
25330.706,410,280.513
25364.330,470,338.466
25397.367,410,280.484
25430.989,470,338.400
25464.023,410,280.390
25497.647,470,338.323
25530.679,410,280.492
25564.301,470,338.404
25597.336,410,280.594
25630.962,470,338.296
25663.999,410,280.329
25697.619,470,338.414
25730.654,410,280.401
25764.270,470,338.464
25797.312,410,280.523
25830.927,470,338.419
25863.973,410,280.601
25897.588,470,338.155
25930.632,410,280.386
25964.243,470,338.386
25997.290,410,280.287
26030.903,470,338.362
26063.948,410,280.348
26097.558,470,338.403
26130.602,410,280.433
26164.216,470,338.312
26197.263,410,280.230
26230.868,470,338.357
26263.918,410,280.318
26297.525,470,338.206
26330.580,410,280.253
26364.183,470,338.236
26397.232,410,280.257
26430.844,470,338.170
26463.894,410,280.319
26497.496,470,338.095
26530.548,410,280.189
26564.155,470,338.311
26597.209,410,280.280
26630.810,470,338.246
26663.869,410,280.278
26697.471,470,338.123
26730.525,410,280.513
26764.124,470,338.162
26797.183,410,280.314
26830.784,470,338.300
26863.842,410,280.392
26897.437,470,338.350
26930.494,410,280.455
26964.095,470,338.357
26997.156,410,280.450
27030.748,470,338.289
27063.813,410,280.287
27097.405,470,338.222
27130.469,410,280.336
27164.060,470,338.101
27197.129,410,280.498
27230.718,470,338.184
27263.786,410,280.370
27297.375,470,338.339
27330.441,410,280.190
27364.035,470,338.170
27397.099,410,280.257
27430.687,470,338.185
27463.758,410,280.192
27497.346,470,338.206
27530.417,410,280.255
27564.000,470,338.203
27597.072,410,280.305
27630.662,470,338.117
27663.733,410,280.259
27697.315,470,338.296
27730.387,410,280.219
27763.970,470,338.266
27797.046,410,280.273
27830.625,470,338.200
27863.707,410,280.163
27897.283,470,338.319
27930.364,410,280.332
27963.938,470,338.200
27997.023,410,280.221
28030.600,470,338.326
28063.677,410,280.214
28097.255,470,338.171
28130.336,410,280.181
28163.910,470,338.200
28196.997,410,280.321
28230.569,470,338.209
28263.654,410,280.379
28297.223,470,338.501
28330.306,410,280.123
28363.879,470,338.289
28396.970,410,280.294
28430.531,470,338.243
28463.627,410,280.173
28497.194,470,338.288
28530.283,410,280.262
28563.843,470,338.276
28596.938,410,280.259
28630.500,470,338.314
28663.601,410,280.211
28697.157,470,338.296
28730.254,410,280.191
28763.814,470,338.164
28796.914,410,280.158
28830.473,470,337.926
28863.568,410,280.222
28897.130,470,338.267
28930.226,410,280.168
28963.782,470,338.068
28996.887,410,280.226
29030.440,470,338.306
29063.540,410,280.128
29097.095,470,338.270
29130.199,410,280.188
29163.748,470,338.244
29196.856,410,280.144
29230.409,470,338.188
29263.513,410,280.204
29297.065,470,338.224
29330.175,410,280.101
29363.716,470,338.326
29396.832,410,280.201
29430.376,470,338.259
29463.485,410,280.176
29497.034,470,338.188
29530.144,410,280.150
29563.684,470,338.129
29596.806,410,280.063
29630.341,470,338.262
29663.461,410,280.075
29696.996,470,338.213
29730.120,410,280.253
29763.655,470,338.003
29796.773,410,279.901
29830.308,470,337.968
29863.431,410,279.916
29896.967,470,337.978
29930.090,410,279.997
29963.619,470,338.169
29996.747,410,279.962
30030.279,470,337.953
30063.405,410,280.012
30096.935,470,338.024
30130.059,410,279.991
30163.586,470,337.887
30196.717,410,279.850
30230.243,470,337.909
30263.380,410,279.778
30296.898,470,337.900
30330.032,410,279.920
30363.558,470,338.020
30396.692,410,279.894
30430.211,470,338.071
30463.351,410,279.883
30496.869,470,337.952
30530.003,410,279.914
30563.525,470,337.945
30596.664,410,279.990
30630.179,470,337.961
30663.318,410,279.817
30696.836,470,338.004
30729.980,410,279.834
30763.490,470,338.145
30796.633,410,279.971
30830.145,470,338.054
30863.291,410,279.869
30896.797,470,337.792
30929.951,410,279.787
30963.458,470,337.885
30996.609,410,279.903
31030.113,470,337.854
31063.266,410,279.712
31096.770,470,337.814
31129.922,410,280.081
31163.423,470,338.129
31196.577,410,279.947
31230.080,470,337.970
31263.239,410,279.657
31296.733,470,337.847
31329.894,410,279.813
31363.390,470,338.102
31396.554,410,279.693
31430.041,470,337.959
31463.204,410,279.718
31496.699,470,337.871
31529.868,410,279.794
31563.356,470,337.852
31596.520,410,279.774
31630.006,470,337.839
31663.178,410,279.627
31696.662,470,338.019
31729.837,410,279.705
31763.319,470,337.879
31796.492,410,279.734
31829.978,470,337.686
31863.148,410,279.574
31896.632,470,337.893
31929.805,410,279.631
31963.286,470,337.940
31996.466,410,279.598
32029.941,470,337.890
32063.127,410,279.797
32096.599,470,338.033
32129.787,410,279.749
32163.257,470,338.123
32196.439,410,279.639
32229.920,470,337.972
32263.101,410,279.655
32296.578,470,337.786
32329.760,410,279.564
32363.233,470,338.005
32396.416,410,279.729
32429.888,470,338.007
32463.077,410,279.658
32496.545,470,337.939
32529.736,410,279.565
32563.207,470,337.667
32596.392,410,279.596
32629.861,470,337.674
32663.050,410,279.431
32696.522,470,337.788
32729.711,410,279.447
32763.178,470,337.853
32796.369,410,279.352
32829.837,470,337.700
32863.026,410,279.508
32896.498,470,337.956
32929.686,410,279.610
32963.150,470,337.891
32996.344,410,279.556
33029.808,470,337.673
33063.003,410,279.432
33096.470,470,337.854
33129.662,410,279.472
33163.128,470,337.810
33196.322,410,279.425
33229.781,470,337.674
33262.975,410,279.345
33296.442,470,337.862
33329.637,410,279.649
33363.102,470,337.769
33396.293,410,279.543
33429.758,470,337.631
33462.953,410,279.489
33496.415,470,337.506
33529.611,410,279.379
33563.072,470,337.797
33596.269,410,279.406
33629.732,470,337.800
33662.928,410,279.368
33696.390,470,337.660
33729.589,410,279.399
33763.044,470,337.553
33796.248,410,279.431
33829.705,470,337.615
33862.901,410,279.449
33896.358,470,337.677
33929.563,410,279.420
33963.022,470,337.600
33996.221,410,279.349
34029.674,470,337.585
34062.876,410,279.373
34096.333,470,337.648
34129.536,410,279.232
34162.992,470,337.457
34196.192,410,279.220
34229.649,470,337.376
34262.854,410,279.247
34296.305,470,337.650
34329.513,410,279.243
34362.965,470,337.663
34396.167,410,279.412
34429.620,470,337.525
34462.826,410,279.137
34496.282,470,337.523
34529.486,410,279.238
34562.939,470,337.806
34596.145,410,279.361
34629.595,470,337.505
34662.801,410,279.338
34696.249,470,337.645
34729.459,410,279.185
34762.910,470,337.515
34796.120,410,279.376
34829.567,470,337.512
34862.780,410,279.219
34896.222,470,337.496
34929.437,410,279.215
34962.885,470,337.549
34996.099,410,279.263
35029.540,470,337.685
35062.754,410,279.285
35096.197,470,337.498
35129.411,410,279.149
35162.855,470,337.493
35196.069,410,279.119
35229.513,470,337.404
35262.726,410,279.253
35296.170,470,337.485
35329.385,410,279.100
35362.830,470,337.456
35396.048,410,279.206
35429.486,470,337.702
35462.706,410,279.126
35496.145,470,337.464
35529.365,410,279.258
35562.800,470,337.401
35596.018,410,279.162
35629.454,470,337.425
35662.678,410,279.100
35696.116,470,337.309
35729.338,410,279.213
35762.771,470,337.579
35795.996,410,279.174
35829.429,470,337.418
35862.657,410,279.221
35896.085,470,337.489
35929.315,410,279.190
35962.741,470,337.413
35995.971,410,278.955
36029.400,470,337.470
36062.628,410,279.088
36096.061,470,337.505
36129.284,410,279.034
36162.719,470,337.151
36195.948,410,279.061
36229.375,470,337.243
36262.604,410,278.963
36296.030,470,337.259
36329.263,410,278.866
36362.689,470,337.245
36395.923,410,278.974
36429.349,470,337.459
36462.575,410,279.024
36496.001,470,337.327
36529.233,410,279.040
36562.659,470,337.314
36595.893,410,278.939
36629.321,470,337.279
36662.550,410,278.839
36695.979,470,337.377
36729.210,410,278.925
36762.632,470,337.334
36795.868,410,278.902
36829.288,470,337.363
36862.526,410,278.914
36895.948,470,337.250
36929.188,410,278.959
36962.602,470,337.254
36995.846,410,278.852
37029.259,470,337.048
37062.501,410,278.930
37095.922,470,337.440
37129.160,410,278.993
37162.576,470,337.302
37195.821,410,278.811
37229.237,470,337.205
37262.478,410,278.842
37295.891,470,337.247
37329.133,410,278.779
37362.551,470,337.159
37395.796,410,278.753
37429.205,470,337.329
37462.450,410,278.951
37495.861,470,337.132
37529.111,410,278.680
37562.519,470,337.128
37595.766,410,278.748
37629.180,470,337.133
37662.427,410,279.001
37695.838,470,337.143
37729.083,410,278.917
37762.492,470,337.107
37795.740,410,278.824
37829.148,470,337.312
37862.398,410,278.844
37895.808,470,337.230
37929.062,410,278.899
37962.463,470,337.297
37995.720,410,278.883
38029.118,470,337.386
38062.375,410,278.908
38095.777,470,337.234
38129.031,410,278.725
38162.434,470,337.273
38195.693,410,278.813
38229.089,470,337.337
38262.351,410,278.960
38295.747,470,337.523
38329.008,410,278.757
38362.410,470,337.217
38395.670,410,278.794
38429.066,470,337.345
38462.324,410,278.851
38495.721,470,337.448
38528.982,410,278.725
38562.376,470,337.230
38595.639,410,279.395
38629.034,470,338.623
38662.302,410,280.202
38695.694,470,338.844
38728.960,410,280.499
38762.351,470,338.984
38795.615,410,280.574
38829.007,470,338.814
38862.274,410,280.519
38895.667,470,338.852
38928.935,410,280.566
38962.319,470,339.059
38995.591,410,280.661
39028.978,470,339.040
39062.245,410,280.647
39095.636,470,339.032
39128.904,410,280.504
39162.294,470,338.859
39195.567,410,280.456
39228.950,470,339.001
39262.225,410,280.491
39295.604,470,339.220
39328.878,410,280.765
39362.265,470,339.098
39395.539,410,280.899
39428.917,470,339.329
39462.197,410,281.096
39495.579,470,339.265
39528.856,410,281.049
39562.232,470,339.511
39595.512,410,281.293
39628.891,470,339.774
39662.174,410,281.735
39695.548,470,340.479
39728.826,410,282.344
39762.208,470,340.995
39795.485,410,282.736
39828.863,470,341.153
39862.148,410,282.787
39895.518,470,341.396
39928.803,410,282.692
39962.177,470,341.216
39995.463,410,282.806
40028.834,470,341.418
40062.121,410,282.842
40095.489,470,341.315
40128.777,410,282.905
40162.148,470,341.250
40195.440,410,282.807
40228.807,470,341.279
40262.096,410,282.873
40295.464,470,341.102
40328.756,410,282.720
40362.120,470,341.283
40395.410,410,282.750
40428.777,470,341.199
40462.071,410,282.715
40495.435,470,341.184
40528.726,410,282.725
40562.094,470,341.241
40595.384,410,282.764
40628.750,470,341.051
40662.045,410,282.797
40695.410,470,341.232
40728.707,410,282.614
40762.066,470,341.225
40795.359,410,282.666
40828.726,470,341.200
40862.019,410,282.528
40895.380,470,341.121
40928.681,410,282.640
40962.036,470,340.985
40995.336,410,282.408
41028.694,470,340.794
41061.995,410,282.151
41095.349,470,340.474
41128.652,410,281.792
41162.009,470,340.175
41195.310,410,281.552
41228.666,470,340.046
41261.968,410,281.413
41295.322,470,339.524
41328.630,410,280.989
41361.984,470,339.505
41395.287,410,281.070
41428.636,470,339.860
41461.946,410,281.637
41495.293,470,340.079
41528.604,410,281.807
41561.950,470,340.270
41595.262,410,281.745
41628.613,470,340.363
41661.919,410,281.902
41695.270,470,340.413
41728.577,410,282.014
41761.926,470,340.330
41795.235,410,281.979
41828.583,470,340.344
41861.899,410,281.966
41895.241,470,340.391
41928.552,410,281.835
41961.895,470,340.310
41995.214,410,281.750
42028.552,470,340.593
42061.872,410,282.006
42095.208,470,340.476
42128.525,410,282.008
42161.868,470,340.401
42195.184,410,281.901
42228.524,470,340.253
42261.845,410,281.976
42295.183,470,340.253
42328.507,410,281.794
42361.838,470,340.193
42395.160,410,281.673
42428.499,470,340.139
42461.818,410,281.824
42495.151,470,340.253
42528.480,410,281.603
42561.810,470,340.086
42595.136,410,281.705
42628.468,470,340.238
42661.793,410,281.482
42695.123,470,339.975
42728.451,410,281.626
42761.784,470,340.024
42795.110,410,281.574
42828.441,470,340.167
42861.773,410,281.761
42895.100,470,340.176
42928.426,410,281.679
42961.752,470,340.293
42995.088,410,281.889
43028.414,470,340.454
43061.742,410,281.896
43095.067,470,340.377
43128.405,410,281.776
43161.727,470,340.370
43195.065,410,281.723
43228.385,470,340.595
43261.721,410,282.155
43295.040,470,340.622
43328.378,410,281.963
43361.696,470,340.632
43395.033,410,282.103
43428.352,470,340.635
43461.695,410,282.137
43495.009,470,340.481
43528.355,410,282.056
43561.669,470,340.552
43595.013,410,281.984
43628.324,470,340.591
43661.666,410,281.944
43694.980,470,340.672
43728.324,410,281.916
43761.637,470,340.403
43794.982,410,281.940
43828.297,470,340.655
43861.646,410,281.951
43894.954,470,340.385
43928.303,410,281.844
43961.610,470,340.628
43994.961,410,282.150
44028.264,470,340.575
44061.621,410,282.114
44094.921,470,340.548
44128.278,410,282.163
44161.582,470,340.695
44194.933,410,282.151
44228.242,470,340.594
44261.592,410,282.048
44294.896,470,340.639
44328.251,410,282.192
44361.553,470,340.550
44394.909,410,282.157
44428.207,470,340.555
44461.567,410,282.049
44494.867,470,340.614
44528.224,410,282.114
44561.521,470,340.696
44594.885,410,282.081
44628.183,470,340.707
44661.545,410,282.066
44694.839,470,340.397
44728.199,410,282.098
44761.493,470,340.630
44794.861,410,281.893
44828.155,470,340.351
44861.514,410,281.972
44894.806,470,340.351
44928.176,410,281.789
44961.464,470,340.345
44994.831,410,281.790
45028.123,470,340.385
45061.488,410,281.889
45094.782,470,340.412
45128.150,410,281.700
45161.435,470,340.294
45194.809,410,281.849
45228.091,470,340.441
45261.463,410,281.708
45294.749,470,340.353
45328.122,410,281.788
45361.406,470,340.361
45394.781,410,281.810
45428.062,470,340.193
45461.440,410,281.855
45494.719,470,340.228
45528.096,410,281.558
45561.379,470,340.154
45594.757,410,281.715
45628.034,470,340.425
45661.416,410,281.578
45694.693,470,340.122
45728.073,410,281.742
45761.348,470,340.377
45794.729,410,281.722
45828.008,470,340.466
45861.393,410,281.680
45894.659,470,340.304
45928.048,410,281.744
45961.318,470,340.195
45994.703,410,281.553
46027.975,470,340.384
46061.367,410,281.626
46094.635,470,340.472
46128.019,410,281.793
46161.292,470,340.255
46194.682,410,281.753
46227.945,470,340.196
46261.338,410,281.534
46294.602,470,340.262
46327.994,410,281.723
46361.262,470,340.281
46394.655,410,281.680
46427.917,470,340.386
46461.313,410,281.610
46494.574,470,340.213
46527.974,410,281.498
46561.234,470,340.251
46594.628,410,281.721
46627.890,470,340.321
46661.286,410,281.688
46694.544,470,340.246
46727.948,410,281.437
46761.203,470,340.169
46794.601,410,281.619
46827.860,470,340.346
46861.261,410,281.772
46894.515,470,340.159
46927.917,410,281.622
46961.174,470,340.246
46994.577,410,281.617
47027.830,470,340.307
47061.236,410,281.423
47094.483,470,340.157
47127.893,410,281.537
47161.141,470,340.322
47194.555,410,281.538
47227.802,470,340.184
47261.209,410,281.557
47294.457,470,340.155
47327.872,410,281.418
47361.113,470,340.057
47394.528,410,281.617
47427.768,470,340.253
47461.182,410,281.633
47494.428,470,340.177
47527.842,410,281.313
47561.081,470,340.147
47594.501,410,281.393
47627.741,470,340.048
47661.160,410,281.487
47694.394,470,339.904
47727.814,410,281.422
47761.050,470,339.979
47794.472,410,281.259
47827.708,470,339.733
47861.136,410,280.824
47894.365,470,339.467
47927.790,410,280.461
47961.026,470,338.892
47994.450,410,280.192
48027.678,470,338.536
48061.106,410,279.571
48094.341,470,338.104
48127.762,410,279.085
48160.997,470,337.555
48194.421,410,278.693
48227.653,470,336.919
48261.076,410,278.161
48294.312,470,336.724
48327.733,410,277.554
48360.975,470,336.009
48394.387,410,277.261
48427.632,470,335.753
48461.044,410,276.796
48494.292,470,335.284
48527.707,410,276.332
48560.945,470,334.915
48594.361,410,275.911
48627.603,470,334.359
48661.020,410,275.551
48694.262,470,333.882
48727.672,410,275.144
48760.923,470,333.671
48794.328,410,274.440
48827.577,470,333.149
48860.987,410,274.152
48894.238,470,332.660
48927.644,410,273.864
48960.899,470,332.297
48994.305,410,273.666
49027.554,470,331.994
49060.960,410,273.038
49094.213,470,331.692
49127.616,410,272.724
49160.873,470,331.376
49194.274,410,272.653
49227.527,470,331.235
49260.928,410,272.429
49294.187,470,331.292
49327.586,410,272.315
49360.844,470,330.833
49394.244,410,272.144
49427.505,470,330.817
49460.898,410,272.214
49494.160,470,330.892
49527.556,410,272.165
49560.819,470,330.850
49594.212,410,272.162
49627.480,470,330.707
49660.868,410,272.177
49694.137,470,330.715
49727.525,410,272.172
49760.798,470,330.725
49794.184,410,272.038
49827.456,470,330.790
49860.822,410,272.180
49894.108,470,330.885
49927.497,410,272.064
49960.770,470,330.842
49994.158,410,272.140
50027.426,470,330.879
50060.809,410,271.941
50094.085,470,330.967
50127.470,410,272.054
50160.744,470,330.932
50194.124,410,272.086
50227.405,470,330.754
50260.779,410,272.055
50294.059,470,330.783
50327.441,410,271.976
50360.715,470,330.879
50394.093,410,271.926
50427.377,470,330.774
50460.752,410,271.968
50494.032,470,330.766
50527.406,410,271.889
50560.693,470,330.813
50594.065,410,272.053
50627.352,470,330.748
50660.721,410,271.946
50694.012,470,330.986
50727.379,410,272.019
50760.665,470,330.912
50794.035,410,272.108
50827.323,470,330.722
50860.697,410,271.922
50893.984,470,330.847
50927.349,410,271.994
50960.642,470,330.838
50994.005,410,271.842
51027.298,470,330.804
51060.664,410,271.930
51093.959,470,330.828
51127.319,410,272.040
51160.616,470,330.744
51193.975,410,271.962
51227.277,470,330.562
51260.634,410,271.860
51293.934,470,330.825
51327.290,410,271.935
51360.591,470,330.689
51393.948,410,271.963
51427.248,470,330.622
51460.600,410,271.839
51493.909,470,330.775
51527.263,410,271.827
51560.566,470,330.881
51593.916,410,272.064
51627.224,470,331.003
51660.574,410,271.849
51693.883,470,330.641
51727.232,410,271.830
51760.537,470,330.660
51793.888,410,271.913
51827.200,470,330.840
51860.542,410,271.860
51893.858,470,330.659
51927.201,410,271.837
51960.510,470,330.794
51993.858,410,271.884
52027.171,470,330.741
52060.516,410,271.917
52093.832,470,330.790
52127.172,410,271.868
52160.489,470,330.711
52193.825,410,271.945
52227.144,470,330.734
52260.486,410,271.829
52293.803,470,330.675
52327.140,410,271.771
52360.465,470,330.633
52393.795,410,272.027
52427.123,470,330.662
52460.453,410,271.802
52493.776,470,330.566
52527.107,410,271.860
52560.438,470,330.724
52593.765,410,271.794
52627.096,470,330.765
52660.424,410,271.836
52693.755,470,330.649
52727.083,410,271.860
52760.409,470,330.671
52793.735,410,271.865
52827.071,470,330.757
52860.394,410,271.752
52893.726,470,330.653
52927.048,410,271.662
52960.382,470,330.772
52993.705,410,271.717
53027.043,470,330.740
53060.365,410,271.852
53093.700,470,330.656
53127.020,410,271.814
53160.358,470,330.630
53193.675,410,271.759
53227.018,470,330.659
53260.336,410,271.864
53293.675,470,330.626
53326.986,410,271.929
53360.336,470,330.574
53393.643,410,271.804
53426.992,470,330.527
53460.300,410,271.759
53493.648,470,330.787
53526.958,410,271.840
53560.305,470,330.587
53593.618,410,271.584
53626.968,470,330.397
53660.269,410,271.765
53693.623,470,330.638
53726.931,410,271.835
53760.280,470,330.423
53793.583,410,271.693
53826.942,470,330.718
53860.241,410,271.776
53893.598,470,330.641
53926.899,410,271.752
53960.256,470,330.552
53993.556,410,271.716
54026.912,470,330.597
54060.211,410,271.827
54093.575,470,330.666
54126.869,410,271.748
54160.228,470,330.599
54193.523,410,271.707
54226.889,470,330.605
54260.180,410,271.648
54293.544,470,330.712
54326.836,410,271.709
54360.208,470,330.423
54393.491,410,271.601
54426.865,470,330.494
54460.151,410,271.785
54493.519,470,330.651
54526.807,410,271.735
54560.180,470,330.359
54593.463,410,271.725
54626.840,470,330.463
54660.119,410,271.641
54693.497,470,330.671
54726.772,410,271.543
54760.153,470,330.670
54793.433,410,271.608
54826.813,470,330.376
54860.085,410,271.469
54893.470,470,330.482
54926.742,410,271.575
54960.126,470,330.418
54993.398,410,271.611
55026.785,470,330.408
55060.055,410,271.502
55093.441,470,330.401
55126.712,410,271.645
55160.103,470,330.366
55193.369,410,271.517
55226.756,470,330.451
55260.023,410,271.564
55293.419,470,330.563
55326.684,410,271.637
55360.073,470,330.655
55393.341,410,271.544
55426.733,470,330.401
55459.998,410,271.542
55493.394,470,330.428
55526.650,410,271.555
55560.052,470,330.577
55593.307,410,271.429
55626.708,470,330.510
55659.966,410,271.497
55693.364,470,330.544
55726.619,410,271.450
55760.026,470,330.426
55793.279,410,271.621
55826.683,470,330.527
55859.933,410,271.524
55893.341,470,330.525
55926.591,410,271.428
55959.996,470,330.370
55993.245,410,271.524
56026.658,470,330.418
56059.906,410,271.462
56093.313,470,330.318
56126.562,410,271.412
56159.968,470,330.415
56193.222,410,271.538
56226.627,470,330.452
56259.876,410,271.405
56293.283,470,330.273
56326.533,410,271.513
56359.946,470,330.502
56393.192,410,271.429
56426.603,470,330.271
56459.854,410,271.356
56493.261,470,330.342
56526.510,410,271.435
56559.914,470,330.359
56593.170,410,271.493
56626.573,470,330.325
56659.825,410,271.392
56693.230,470,330.323
56726.486,410,271.414
56759.886,470,330.257
56793.143,410,271.366
56826.546,470,330.200
56859.800,410,271.420
56893.201,470,330.427
56926.457,410,271.326
56959.858,470,330.279
56993.115,410,271.440
57026.515,470,330.280
57059.773,410,271.405
57093.178,470,330.200
57126.433,410,271.268
57159.831,470,330.251
57193.087,410,271.296
57226.489,470,330.256
57259.743,410,271.469
57293.150,470,330.365
57326.404,410,271.338
57359.805,470,330.283
57393.061,410,271.355
57426.464,470,330.275
57459.722,410,271.370
57493.122,470,330.028
57526.379,410,271.326
57559.776,470,330.257
57593.037,410,271.346
57626.436,470,330.304
57659.692,410,271.239
57693.090,470,330.048
57726.349,410,271.244
57759.748,470,330.391
57793.011,410,271.256
57826.406,470,330.274
57859.663,410,271.320
57893.061,470,330.256
57926.326,410,271.326
57959.724,470,330.098
57992.985,410,271.343
58026.379,470,330.440
58059.638,410,271.165
58093.036,470,329.970
58126.294,410,271.311
58159.692,470,330.231
58192.958,410,271.176
58226.351,470,330.110
58259.613,410,271.176
58293.011,470,330.207
58326.274,410,271.276
58359.664,470,330.107
58392.928,410,271.245
58426.325,470,330.194
58459.588,410,271.108
58492.979,470,330.060
58526.244,410,271.340
58559.636,470,330.198
58592.902,410,271.319
58626.294,470,330.174
58659.556,410,271.304
58692.952,470,330.061
58726.214,410,271.289
58759.614,470,330.198
58792.878,410,271.279
58826.267,470,330.078
58859.531,410,271.218
58892.924,470,330.156
58926.192,410,271.244
58959.584,470,330.131
58992.851,410,271.086
59026.241,470,330.018
59059.503,410,271.095
59092.897,470,329.994
59126.164,410,271.203
59159.552,470,330.098
59192.823,410,271.019
59226.215,470,330.045
59259.477,410,271.173
59292.871,470,329.973
59326.134,410,271.242
59359.526,470,330.108
59392.793,410,271.086
59426.185,470,330.156
59459.451,410,270.909
59492.843,470,330.030
59526.110,410,270.923
59559.501,470,329.937
59592.766,410,271.120
59626.156,470,329.983
59659.423,410,271.074
59692.815,470,330.010
59726.082,410,271.084
59759.469,470,330.147
59792.744,410,271.069
59826.127,470,330.088
59859.396,410,271.212
59892.783,470,330.127
59926.058,410,271.060
59959.442,470,329.974
59992.717,410,271.036
60026.098,470,329.866
60059.369,410,270.910
60092.760,470,330.089
60126.028,410,270.885
60159.417,470,330.061
60192.685,410,270.996
60226.074,470,329.877
60259.346,410,271.039
60292.727,470,329.918
60326.000,410,270.954
60359.389,470,330.093
60392.660,410,271.040
60426.046,470,329.842
60459.321,410,271.125
60492.700,470,329.822
60525.976,410,271.155
60559.360,470,329.994
60592.633,410,271.015
60626.020,470,329.930
60659.289,410,271.051
60692.677,470,330.044
60725.948,410,270.882
60759.328,470,329.971
60792.610,410,271.056
60825.985,470,329.925
60859.261,410,271.069
60892.647,470,329.968
60925.925,410,271.034
60959.303,470,329.859
60992.581,410,271.036
61025.962,470,330.043
61059.239,410,271.023
61092.621,470,329.875
61125.895,410,270.940
61159.272,470,329.933
61192.551,410,270.913
61225.930,470,329.778
61259.209,410,270.895
61292.591,470,329.921
61325.868,410,270.934
61359.249,470,329.782
61392.523,410,270.897
61425.901,470,329.893
61459.186,410,270.824
61492.561,470,329.956
61525.840,410,270.840
61559.218,470,329.844
61592.501,410,270.758
61625.874,470,329.710
61659.159,410,270.895
61692.533,470,329.756
61725.815,410,270.972
61759.188,470,329.617
61792.474,410,270.777
61825.846,470,329.777
61859.128,410,270.829
61892.503,470,329.774
61925.784,410,270.748
61959.166,470,329.644
61992.446,410,270.974
62025.821,470,329.933
62059.104,410,270.896
62092.476,470,329.743
62125.762,410,270.976
62159.136,470,329.717
62192.419,410,270.812
62225.793,470,329.618
62259.073,410,270.788
62292.450,470,329.499
62325.734,410,270.842
62359.107,470,329.720
62392.393,410,270.768
62425.761,470,329.967
62459.046,410,270.785
62492.418,470,329.618
62525.709,410,270.925
62559.074,470,329.540
62592.365,410,270.712
62625.732,470,329.754
62659.024,410,270.800
62692.390,470,329.736
62725.677,410,270.680
62759.049,470,329.620
62792.334,410,270.800
62825.708,470,329.590
62858.996,410,270.770
62892.364,470,329.691
62925.654,410,270.618
62959.021,470,329.709
62992.309,410,270.812
63025.680,470,329.517
63058.969,410,270.754
63092.336,470,329.617
63125.628,410,270.683
63158.992,470,329.771
63192.279,410,270.843
63225.647,470,329.730
63258.942,410,270.776
63292.308,470,329.531
63325.600,410,270.830
63358.963,470,329.689
63392.256,410,270.607
63425.623,470,329.629
63458.914,410,270.709
63492.279,470,329.660
63525.571,410,270.568
63558.937,470,329.632
63592.229,410,270.593
63625.591,470,329.654
63658.883,410,270.634
63692.249,470,329.828
63725.545,410,270.688
63758.911,470,329.656
63792.204,410,270.718
63825.567,470,329.653
63858.857,410,270.610
63892.222,470,329.471
63925.517,410,270.700
63958.881,470,329.687
63992.176,410,270.623
64025.540,470,329.569
64058.834,410,270.550
64092.195,470,329.564
64125.494,410,270.560
64158.855,470,329.730
64192.149,410,270.754
64225.509,470,329.516
64258.807,410,270.692
64292.169,470,329.723
64325.462,410,270.640
64358.829,470,329.350
64392.122,410,270.658
64425.485,470,329.531
64458.778,410,270.690
64492.142,470,329.491
64525.436,410,270.563
64558.799,470,329.567
64592.100,410,270.493
64625.457,470,329.408
64658.752,410,270.678
64692.114,470,329.678
64725.413,410,270.776
64758.776,470,329.497
64792.069,410,270.635
64825.437,470,329.683
64858.726,410,270.567
64892.092,470,329.401
64925.384,410,270.790
64958.747,470,329.640
64992.043,410,270.556
65025.407,470,329.506
65058.705,410,270.471
65092.068,470,329.403
65125.362,410,270.536
65158.727,470,329.338
65192.019,410,270.529
65225.384,470,329.395
65258.678,410,270.396
65292.043,470,329.579
65325.338,410,270.670
65358.695,470,329.504
65391.992,410,270.483
65425.358,470,329.424
65458.648,410,270.643
65492.012,470,329.344
65525.310,410,270.532
65558.674,470,329.503
65591.966,410,270.477
65625.333,470,329.639
65658.623,410,270.631
65691.991,470,329.420
65725.285,410,270.387
65758.647,470,329.502
65791.944,410,270.467
65825.303,470,329.399
65858.600,410,270.451
65891.961,470,329.411
65925.255,410,270.605
65958.620,470,329.450
65991.919,410,270.314
66025.282,470,329.374
66058.575,410,270.543
66091.935,470,329.481
66125.233,410,270.350
66158.593,470,329.348
66191.886,410,270.426
66225.251,470,329.399
66258.550,410,270.447
66291.911,470,329.329
66325.208,410,270.323
66358.568,470,329.603
66391.865,410,270.324
66425.230,470,329.488
66458.522,410,270.395
66491.886,470,329.429
66525.181,410,270.568
66558.544,470,329.424
66591.839,410,270.597
66625.201,470,329.260
66658.498,410,270.477
66691.855,470,329.514
66725.155,410,270.477
66758.513,470,329.257
66791.811,410,270.494
66825.174,470,329.376
66858.469,410,270.417
66891.834,470,329.506
66925.131,410,270.379
66958.493,470,329.452
66991.786,410,270.448
67025.152,470,329.159
67058.442,410,270.366
67091.808,470,329.406
67125.102,410,270.174
67158.466,470,329.398
67191.758,410,270.281
67225.122,470,329.343
67258.415,410,270.235
67291.781,470,329.247
67325.073,410,270.464
67358.439,470,329.518
67391.737,410,270.232
67425.099,470,329.197
67458.394,410,270.266
67491.756,470,329.369
67525.050,410,270.375
67558.415,470,329.198
67591.705,410,270.343
67625.072,470,329.330
67658.364,410,270.395
67691.730,470,329.305
67725.023,410,270.346
67758.385,470,329.345
67791.685,410,270.411
67825.046,470,329.399
67858.339,410,270.214
67891.702,470,329.350
67925.000,410,270.509
67958.359,470,329.350
67991.654,410,270.374
68025.020,470,329.395
68058.317,410,270.368
68091.674,470,329.334
68124.972,410,270.331
68158.336,470,329.262
68191.633,410,270.188
68224.993,470,329.316
68258.285,410,270.289
68291.649,470,329.306
68324.949,410,270.141
68358.309,470,329.213
68391.603,410,270.319
68424.966,470,329.298
68458.262,410,270.129
68491.625,470,329.325
68524.920,410,270.220
68558.281,470,329.252
68591.580,410,270.149
68624.943,470,329.443
68658.239,410,270.392
68691.600,470,329.288
68724.893,410,270.351
68758.257,470,329.285
68791.552,410,270.280
68824.916,470,329.331
68858.213,410,270.259
68891.569,470,329.381
68924.870,410,270.181
68958.224,470,329.322
68991.527,410,270.196
69024.888,470,329.209
69058.186,410,270.192
69091.547,470,329.124
69124.845,410,270.228
69158.208,470,329.277
69191.497,410,270.235
69224.860,470,329.211
69258.157,410,270.193
69291.522,470,329.247
69324.818,410,270.159
69358.177,470,329.208
69391.476,410,270.262
69424.837,470,329.226
69458.129,410,270.260
69491.491,470,329.256
69524.792,410,270.150
69558.152,470,329.082
69591.447,410,270.199
69624.810,470,329.180
69658.108,410,270.207
69691.471,470,329.302
69724.760,410,270.297
69758.125,470,329.191
69791.421,410,270.233
69824.785,470,329.245
69858.082,410,270.042
69891.445,470,329.270
69924.741,410,270.241
69958.098,470,329.191
69991.397,410,270.177
70024.759,470,329.300
70058.055,410,270.260
70091.414,470,329.041
70124.711,410,270.289
70158.072,470,329.163
70191.370,410,270.273
70224.730,470,329.218
70258.030,410,270.095
70291.390,470,329.274
70324.687,410,270.304
70358.048,470,329.247
70391.341,410,270.054
70424.705,470,329.032
70458.000,410,270.168
70491.363,470,329.096
70524.658,410,270.064
70558.022,470,329.205
70591.314,410,270.192
70624.677,470,329.186
70657.978,410,270.009
70691.340,470,329.010
70724.636,410,269.915
70757.997,470,328.985
70791.291,410,270.094
70824.651,470,329.111
70857.948,410,269.916
70891.308,470,329.185
70924.605,410,270.057
70957.966,470,329.037
70991.263,410,270.089
71024.628,470,329.140
71057.922,410,270.122
71091.287,470,329.080
71124.584,410,270.099
71157.947,470,329.058
71191.237,410,270.066
71224.604,470,329.156
71257.897,410,270.083
71291.256,470,328.874
71324.553,410,270.048
71357.919,470,328.963
71391.212,410,269.828
71424.574,470,328.891
71457.872,410,270.072
71491.235,470,328.964
71524.530,410,269.983
71557.889,470,329.117
71591.190,410,270.127
71624.546,470,329.079
71657.847,410,269.902
71691.207,470,329.034
71724.505,410,270.032
71757.863,470,329.073
71791.160,410,269.975
71824.525,470,328.895
71857.820,410,269.920
71891.181,470,329.006
71924.474,410,270.021
71957.838,470,328.940
71991.134,410,269.858
72024.494,470,328.895
72057.791,410,269.987
72091.155,470,329.017
72124.453,410,269.686
72157.814,470,328.940
72191.110,410,269.895
72224.474,470,329.078
72257.767,410,269.816
72291.133,470,328.931
72324.425,410,269.900
72357.790,470,328.788
72391.080,410,269.932
72424.449,470,328.938
72457.741,410,269.991
72491.109,470,328.996
72524.398,410,269.869
72557.768,470,328.971
72591.058,410,269.813
72624.428,470,328.910
72657.714,410,269.837
72691.081,470,328.958
72724.370,410,269.931
72757.742,470,328.811
72791.031,410,269.938
72824.401,470,328.970
72857.686,410,270.058
72891.063,470,328.935
72924.343,410,269.899
72957.717,470,328.692
72991.000,410,269.796
73024.374,470,328.749
73057.660,410,269.763
73091.038,470,328.820
73124.315,410,269.801
73157.694,470,328.955
73190.976,410,270.046
73224.354,470,328.709
73257.631,410,269.826
73291.013,470,328.844
73324.290,410,269.874
73357.669,470,328.812
73390.950,410,269.819
73424.329,470,328.778
73457.608,410,269.780
73490.990,470,328.786
73524.265,410,269.744
73557.649,470,328.853
73590.921,410,269.883
73624.308,470,328.729
73657.581,410,269.801
73690.966,470,328.845
73724.240,410,269.769
73757.620,470,328.777
73790.896,410,269.850
73824.278,470,328.972
73857.554,410,269.786
73890.940,470,328.792
73924.215,410,269.687
73957.597,470,328.792
73990.873,410,269.830
74024.258,470,328.807
74057.529,410,269.916
74090.915,470,328.798
74124.187,410,269.967
74157.572,470,328.692
74190.842,410,269.842
74224.232,470,328.690
74257.504,410,269.684
74290.888,470,328.933
74324.160,410,269.680
74357.547,470,328.615
74390.817,410,269.680
74424.208,470,328.741
74457.476,410,269.744
74490.868,470,328.919
74524.136,410,269.689
74557.529,470,329.012
74590.791,410,269.712
74624.186,470,328.711
74657.447,410,269.608
74690.840,470,328.612
74724.106,410,269.779
74757.499,470,328.693
74790.768,410,269.570
74824.162,470,328.606
74857.423,410,269.639
74890.816,470,328.706
74924.079,410,269.727
74957.475,470,328.716
74990.737,410,269.745
75024.138,470,328.606
75057.397,410,269.689
75090.798,470,328.508
75124.057,410,269.786
75157.454,470,328.669
75190.711,410,269.870
75224.114,470,328.967
75257.372,410,269.663
75290.771,470,328.672
75324.028,410,269.647
75357.426,470,328.680
75390.682,410,269.570
75424.086,470,328.716
75457.346,410,269.739
75490.745,470,328.771
75524.003,410,269.616
75557.404,470,328.602
75590.660,410,269.683
75624.063,470,328.564
75657.318,410,269.650
75690.719,470,328.752
75723.975,410,269.649
75757.382,470,328.670
75790.631,410,269.446
75824.038,470,328.667
75857.290,410,269.669
75890.698,470,328.551
75923.948,410,269.539
75957.358,470,328.867
75990.606,410,269.785
76024.016,470,328.665
76057.262,410,269.678
76090.674,470,328.709
76123.920,410,269.572
76157.333,470,328.616
76190.580,410,269.541
76223.991,470,328.835
76257.241,410,269.639
76290.650,470,328.703
76323.898,410,269.506
76357.310,470,328.533
76390.553,410,269.652
76423.967,470,328.603
76457.209,410,269.664
76490.626,470,328.641
76523.866,410,269.643
76557.288,470,328.680
76590.530,410,269.679
76623.941,470,328.583
76657.188,410,269.478
76690.601,470,328.610
76723.844,410,269.603
76757.261,470,328.770
76790.503,410,269.552
76823.922,470,328.605
76857.156,410,269.556
76890.579,470,328.578
76923.814,410,269.513
76957.237,470,328.741
76990.471,410,269.372
77023.899,470,328.549
77057.130,410,269.572
77090.557,470,328.557
77123.788,410,269.654
77157.213,470,328.498
77190.445,410,269.482
77223.873,470,328.613
77257.104,410,269.536
77290.534,470,328.468
77323.763,410,269.480
77357.190,470,328.539
77390.422,410,269.394
77423.849,470,328.709
77457.078,410,269.641
77490.506,470,328.651
77523.737,410,269.668
77557.167,470,328.762
77590.395,410,269.607
77623.821,470,328.457
77657.052,410,269.515
77690.479,470,328.527
77723.709,410,269.559
77757.137,470,328.575
77790.367,410,269.546
77823.800,470,328.354
77857.028,410,269.348
77890.459,470,328.439
77923.682,410,269.397
77957.120,470,328.580
77990.342,410,269.362
78023.773,470,328.783
78056.996,410,269.465
78090.433,470,328.483
78123.657,410,269.372
78157.093,470,328.385
78190.318,410,269.453
78223.753,470,328.534
78256.969,410,269.415
78290.413,470,328.431
78323.628,410,269.347
78357.070,470,328.470
78390.288,410,269.477
78423.726,470,328.568
78456.945,410,269.455
78490.388,470,328.559
78523.605,410,269.506
78557.045,470,328.445
78590.263,410,269.569
78623.701,470,328.458
78656.921,410,269.379
78690.360,470,328.516
78723.579,410,269.344
78757.018,470,328.541
78790.236,410,269.373
78823.676,470,328.475
78856.895,410,269.293
78890.340,470,328.389
78923.549,410,269.471
78956.998,470,328.513
78990.205,410,269.374
79023.658,470,328.472
79056.869,410,269.395
79090.317,470,328.442
79123.521,410,269.518
79156.975,470,328.498
79190.179,410,269.539
79223.628,470,328.495
79256.841,410,269.356
79290.288,470,328.345
79323.495,410,269.447
79356.948,470,328.363
79390.156,410,269.311
79423.605,470,328.270
79456.811,410,269.393
79490.264,470,328.341
79523.468,410,269.309
79556.928,470,328.220
79590.131,410,269.440
79623.585,470,328.442
79656.789,410,269.457
79690.245,470,328.482
79723.441,410,269.225
79756.902,470,328.389
79790.100,410,269.397
79823.562,470,328.468
79856.756,410,269.339
79890.218,470,328.376
79923.418,410,269.520
79956.873,470,328.338
79990.075,410,269.408
80023.536,470,328.549
80056.736,410,269.200
80090.197,470,328.390
80123.394,410,269.459
80156.852,470,328.388
80190.047,410,269.219
80223.513,470,328.422
80256.705,410,269.347
80290.167,470,328.297
80323.362,410,269.347
80356.825,470,328.325
80390.020,410,269.333
80423.486,470,328.444
80456.684,410,269.374
80490.147,470,328.399
80523.339,410,269.353
80556.804,470,328.339
80589.998,410,269.311
80623.463,470,328.229
80656.658,410,269.188
80690.123,470,328.303
80723.316,410,269.121
80756.777,470,328.436
80789.969,410,269.263
80823.437,470,328.273
80856.628,410,269.332
80890.093,470,328.475
80923.286,410,269.253
80956.752,470,328.379
80989.948,410,269.280
81023.415,470,328.400
81056.603,410,269.294
81090.074,470,328.543
81123.260,410,269.157
81156.728,470,328.228
81189.916,410,269.238
81223.391,470,328.353
81256.575,410,269.284
81290.043,470,328.316
81323.236,410,269.237
81356.701,470,328.367
81389.894,410,269.145
81423.360,470,328.305
81456.551,410,269.068
81490.018,470,328.168
81523.210,410,269.159
81556.683,470,328.288
81589.871,410,269.133
81623.337,470,328.280
81656.526,410,269.075
81689.997,470,328.270
81723.180,410,269.215
81756.657,470,328.119
81789.840,410,269.134
81823.311,470,328.325
81856.500,410,269.287
81889.972,470,328.368
81923.159,410,269.243
81956.628,470,328.244
81989.818,410,269.357
82023.286,470,328.317
82056.473,410,269.217
82089.950,470,328.172
82123.131,410,269.163
82156.603,470,328.356
82189.793,410,269.194
82223.268,470,328.386
82256.450,410,269.279
82289.922,470,328.338
82323.103,410,269.147
82356.578,470,328.229
82389.762,410,269.114
82423.239,470,328.217
82456.420,410,269.220
82489.897,470,328.110
82523.077,410,269.230
82556.559,470,328.244
82589.738,410,269.297
82623.214,470,328.122
82656.393,410,269.177
82689.874,470,328.366
82723.056,410,269.119
82756.529,470,328.115
82789.713,410,269.181
82823.190,470,328.188
82856.367,410,269.092
82889.847,470,328.198
82923.029,410,269.031
82956.508,470,328.321
82989.683,410,269.224
83023.162,470,328.060
83056.343,410,269.155
83089.827,470,328.151
83123.002,410,269.063
83156.481,470,328.299
83189.656,410,269.125
83223.141,470,328.102
83256.319,410,269.148
83289.800,470,328.173
83322.979,410,269.119
83356.456,470,328.305
83389.632,410,269.032
83423.115,470,328.000
83456.293,410,269.146
83489.773,470,328.278
83522.953,410,269.044
83556.433,470,328.095
83589.608,410,268.951
83623.095,470,328.134
83656.264,410,268.978
83689.751,470,328.256
83722.922,410,268.989
83756.408,470,328.495
83789.578,410,269.042
83823.070,470,327.917
83856.238,410,269.150
83889.725,470,328.324
83922.901,410,269.121
83956.383,470,328.124
83989.554,410,268.989
84023.041,470,328.031
84056.217,410,269.023
84089.699,470,328.086
84122.871,410,269.087
84156.357,470,328.147
84189.531,410,268.987
84223.021,470,328.375
84256.188,410,268.870
84289.676,470,328.332
84322.846,410,269.244
84356.335,470,328.148
84389.502,410,269.093
84422.994,470,328.115
84456.162,410,269.050
84489.649,470,328.120
84522.819,410,268.928
84556.313,470,328.140
84589.479,410,268.907
84622.970,470,328.049
84656.138,410,268.978
84689.630,470,328.194
84722.794,410,268.873
84756.284,470,328.106
84789.452,410,269.064
84822.943,470,328.202
84856.112,410,268.912
84889.605,470,328.183
84922.769,410,268.965
84956.264,470,328.069
84989.427,410,268.938
85022.920,470,328.172
85056.083,410,268.993
85089.577,470,328.160
85122.740,410,268.995
85156.233,470,328.045
85189.402,410,268.967
85222.892,470,328.063
85256.055,410,269.005
85289.553,470,328.072
85322.719,410,269.111
85356.215,470,327.972
85389.371,410,268.961
85422.869,470,328.121
85456.031,410,269.037
85489.526,470,328.196
85522.689,410,269.040
85556.185,470,328.082
85589.349,410,268.939
85622.842,470,328.152
85656.007,410,268.813
85689.504,470,328.090
85722.663,410,269.059
85756.161,470,328.056
85789.319,410,268.818
85822.818,470,328.197
85855.981,410,268.882
85889.480,470,328.022
85922.640,410,268.763
85956.139,470,328.160
85989.296,410,268.950
86022.798,470,328.127
86055.956,410,268.862
86089.455,470,328.151
86122.610,410,268.830
86156.112,470,328.042
86189.273,410,268.921
86222.770,470,327.977
86255.917,410,268.720
86289.429,470,327.808
86322.582,410,268.900
86356.088,470,327.928
86389.244,410,268.855
86422.745,470,328.035
86455.899,410,268.871
86489.404,470,327.961
86522.556,410,268.962
86556.061,470,328.055
86589.218,410,268.965
86622.723,470,327.783
86655.872,410,268.932
86689.379,470,327.963
86722.534,410,268.890
86756.039,470,327.864
86789.193,410,268.745
86822.696,470,327.994
86855.847,410,268.712
86889.354,470,328.068
86922.504,410,268.782
86956.011,470,327.913
86989.165,410,268.843
87022.675,470,327.988
87055.824,410,268.959
87089.333,470,328.014
87122.483,410,268.866
87155.992,470,328.111
87189.136,410,268.660
87222.651,470,328.073
87255.796,410,268.772
87289.308,470,328.021
87322.452,410,268.639
87355.965,470,327.945
87389.114,410,268.787
87422.621,470,327.931
87455.769,410,269.005
87489.284,470,327.987
87522.431,410,268.717
87555.943,470,327.985
87589.084,410,268.813
87622.599,470,327.844
87655.742,410,268.648
87689.260,470,327.988
87722.403,410,268.729
87755.917,470,328.035
87789.061,410,268.719
87822.576,470,328.072
87855.720,410,268.766
87889.235,470,327.914
87922.376,410,268.655
87955.892,470,327.870
87989.034,410,268.752
88022.548,470,328.040
88055.693,410,268.570
88089.207,470,327.981
88122.355,410,268.802
88155.864,470,327.910
88189.014,410,268.653
88222.519,470,327.929
88255.672,410,268.625
88289.175,470,327.918
88322.330,410,268.762
88355.836,470,327.951
88388.986,410,268.695
88422.490,470,327.843
88455.648,410,268.873
88489.134,470,327.956
88522.306,410,268.788
88555.802,470,328.044
88588.961,410,268.733
88622.464,470,327.881
88655.622,410,268.797
88689.117,470,328.016
88722.283,410,268.723
88755.777,470,328.033
88788.937,410,268.728
88822.433,470,327.985
88855.598,410,268.781
88889.088,470,327.974
88922.256,410,268.800
88955.744,470,327.922
88988.916,410,268.615
89022.402,470,328.063
89055.572,410,268.694
89089.062,470,327.865
89122.232,410,268.808
89155.719,470,327.692
89188.895,410,268.741
89222.373,470,327.939
89255.552,410,268.541
89289.030,470,327.784
89322.211,410,268.734
89355.690,470,327.751
89388.868,410,268.621
89422.348,470,327.824
89455.527,410,268.684
89489.003,470,327.811
89522.186,410,268.609
89555.660,470,327.939
89588.842,410,268.669
89622.313,470,327.974
89655.501,410,268.622
89688.970,470,327.929
89722.163,410,268.817
89755.631,470,328.054
89788.819,410,268.655
89822.288,470,327.823
89855.481,410,268.758
89888.944,470,327.823
89922.135,410,268.608
89955.597,470,327.697
89988.798,410,268.630
90022.255,470,327.801
90055.452,410,268.671
90088.917,470,327.690
90122.116,410,268.588
90155.568,470,327.876
90188.776,410,268.684
90222.226,470,327.805
90255.430,410,268.683
90288.885,470,327.938
90322.093,410,268.723
90355.544,470,327.824
90388.746,410,268.596
90422.197,470,327.794
90455.405,410,268.539
90488.856,470,327.802
90522.068,410,268.569
90555.513,470,327.789
90588.728,410,268.592
90622.169,470,327.825
90655.382,410,268.511
90688.825,470,327.815
90722.046,410,268.741
90755.483,470,327.748
90788.703,410,268.660
90822.144,470,327.773
90855.363,410,268.687
90888.799,470,327.788
90922.021,410,268.566
90955.453,470,327.766
90988.678,410,268.482
91022.109,470,327.737
91055.335,410,268.773
91088.766,470,327.944
91121.997,410,268.617
91155.427,470,327.794
91188.650,410,268.590
91222.079,470,327.976
91255.313,410,268.522
91288.739,470,327.863
91321.974,410,268.575
91355.393,470,327.761
91388.630,410,268.435
91422.056,470,327.862
91455.291,410,268.536
91488.710,470,327.813
91521.946,410,268.745
91555.365,470,327.786
91588.604,410,268.507
91622.022,470,327.807
91655.264,410,268.463
91688.682,470,327.667
91721.921,410,268.607
91755.338,470,327.812
91788.583,410,268.580
91821.992,470,327.971
91855.239,410,268.509
91888.654,470,327.763
91921.897,410,268.446
91955.309,470,327.651
91988.557,410,268.664
92021.966,470,328.068
92055.215,410,268.480
92088.620,470,327.768
92121.874,410,268.535
92155.277,470,327.868
92188.532,410,268.558
92221.932,470,327.868
92255.190,410,268.449
92288.596,470,327.713
92321.850,410,268.690
92355.249,470,327.864
92388.511,410,268.555
92421.909,470,327.764
92455.172,410,268.516
92488.566,470,327.699
92521.827,410,268.573
92555.220,470,327.613
92588.486,410,268.554
92621.879,470,327.661
92655.143,410,268.475
92688.531,470,327.599
92721.802,410,268.570
92755.191,470,327.766
92788.466,410,268.343
92821.849,470,327.749
92855.119,410,268.468
92888.503,470,327.818
92921.782,410,268.480
92955.162,470,327.703
92988.442,410,268.516
93021.819,470,327.608
93055.102,410,268.517
93088.473,470,327.726
93121.755,410,268.497
93155.133,470,327.738
93188.414,410,268.412
93221.785,470,327.795
93255.074,410,268.455
93288.445,470,327.828
93321.733,410,268.453
93355.103,470,327.731
93388.395,410,268.415
93421.756,470,327.668
93455.050,410,268.290
93488.417,470,327.665
93521.712,410,268.606
93555.074,470,327.754
93588.370,410,268.309
93621.731,470,327.797
93655.026,410,268.441
93688.386,470,327.700
93721.684,410,268.296
93755.046,470,327.703
93788.345,410,268.556
93821.699,470,327.813
93855.005,410,268.340
93888.358,470,327.604
93921.660,410,268.309
93955.016,470,327.616
93988.324,410,268.445
94021.674,470,327.698
94054.977,410,268.441
94088.328,470,327.760
94121.641,410,268.450
94154.982,470,327.549
94188.295,410,268.319
94221.641,470,327.633
94254.959,410,268.563
94288.299,470,327.418
94321.617,410,268.398
94354.953,470,327.596
94388.272,410,268.308
94421.611,470,327.722
94454.935,410,268.593
94488.265,470,327.453
94521.591,410,268.252
94554.928,470,327.638
94588.248,410,268.383
94621.578,470,327.655
94654.909,410,268.363
94688.240,470,327.419
94721.566,410,268.292
94754.896,470,327.510
94788.224,410,268.409
94821.553,470,327.700
94854.888,410,268.526
94888.207,470,327.551
94921.541,410,268.374
94954.863,470,327.553
94988.200,410,268.286
95021.523,470,327.597
95054.863,410,268.445
95088.179,470,327.707
95121.520,410,268.310
95154.839,470,327.617
95188.178,410,268.356
95221.489,470,327.558
95254.839,410,268.311
95288.149,470,327.527
95321.494,410,268.376
95354.808,470,327.680
95388.155,410,268.222
95421.466,470,327.515
95454.812,410,268.297
95488.121,470,327.429
95521.475,410,268.388
95554.776,470,327.546
95588.134,410,268.402
95621.436,470,327.509
95654.793,410,268.270
95688.091,470,327.632
95721.449,410,268.118
95754.745,470,327.507
95788.105,410,268.356
95821.406,470,327.470
95854.768,410,268.244
95888.064,470,327.486
95921.427,410,268.356
95954.714,470,327.535
95988.081,410,268.450
96021.375,470,327.456
96054.738,410,268.264
96088.030,470,327.527
96121.401,410,268.325
96154.690,470,327.687
96188.058,410,268.375
96221.346,470,327.466
96254.716,410,268.113
96288.008,470,327.485
96321.371,410,268.379
96354.661,470,327.414
96388.032,410,268.300
96421.320,470,327.364
96454.692,410,268.287
96487.977,470,327.379
96521.344,410,268.254
96554.640,470,327.437
96588.005,410,268.356
96621.294,470,327.470
96654.663,410,268.329
96687.950,470,327.233
96721.320,410,268.306
96754.613,470,327.438
96787.982,410,268.276
96821.267,470,327.289
96854.635,410,268.149
96887.923,470,327.403
96921.292,410,268.232
96954.583,470,327.292
96987.954,410,268.392
97021.243,470,327.442
97054.613,410,268.150
97087.899,470,327.634
97121.268,410,268.186
97154.559,470,327.558
97187.929,410,268.160
97221.213,470,327.441
97254.588,410,268.256
97287.875,470,327.484
97321.241,410,268.180
97354.531,470,327.344
97387.898,410,268.136
97421.188,470,327.369
97454.559,410,268.176
97487.847,470,327.383
97521.215,410,268.156
97554.506,470,327.475
97587.877,410,268.252
97621.160,470,327.483
97654.535,410,268.222
97687.816,470,327.466
97721.193,410,268.178
97754.478,470,327.476
97787.852,410,268.154
97821.132,470,327.308
97854.505,410,268.332
97887.795,470,327.231
97921.167,410,268.023
97954.447,470,327.241
97987.821,410,268.238
98021.108,470,327.450
98054.482,410,268.136
98087.767,470,327.176
98121.138,410,268.147
98154.426,470,327.190
98187.797,410,268.173
98221.081,470,327.368
98254.456,410,268.055
98287.737,470,327.317
98321.109,410,268.264
98354.398,470,327.468
98387.771,410,268.164
98421.051,470,327.268
98454.428,410,268.136
98487.710,470,327.376
98521.089,410,268.216
98554.370,470,327.339
98587.743,410,268.201
98621.030,470,327.394
98654.403,410,268.406
98687.686,470,327.225
98721.061,410,268.103
98754.343,470,327.382
98787.718,410,268.131
98820.998,470,327.418
98854.375,410,268.037
98887.655,470,327.274
98921.037,410,268.235
98954.313,470,327.202
98987.692,410,268.323
99020.977,470,327.367
99054.347,410,268.064
99087.629,470,327.373
99121.009,410,268.021
99154.293,470,327.332
99187.664,410,268.088
99220.944,470,327.282
99254.326,410,268.058
99287.604,470,327.312
99320.979,410,268.181
99354.264,470,327.406
99387.642,410,268.081
99420.922,470,327.330
99454.296,410,268.119
99487.575,470,327.222
99520.955,410,268.005
99554.239,470,327.177
99587.611,410,268.037
99620.894,470,327.264
99654.268,410,268.153
99687.551,470,327.185
99720.930,410,268.029
99754.209,470,327.102
99787.585,410,267.975
99820.870,470,327.334
99854.249,410,267.972
99887.521,470,327.103
99920.906,410,267.905
99954.182,470,327.186
99987.564,410,268.052
100020.837,470,327.199
100054.219,410,267.965
100087.501,470,327.198
100120.880,410,268.009
100154.157,470,327.259
100187.535,410,268.017
100220.813,470,327.363
100254.194,410,267.862
100287.470,470,327.295
100320.855,410,267.846
100354.128,470,327.084
100387.511,410,267.992
100420.790,470,327.187
100454.168,410,267.900
100487.442,470,327.161
100520.827,410,267.888
100554.099,470,327.451
100587.481,410,268.001
100620.760,470,327.219
100654.144,410,268.010
100687.418,470,327.225
100720.799,410,267.869
100754.075,470,327.123
100787.455,410,268.088
100820.735,470,327.257
100854.115,410,267.953
100887.391,470,327.090
100920.776,410,267.804
100954.046,470,327.108
100987.427,410,267.956
101020.708,470,327.267
101054.091,410,268.071
101087.365,470,327.214
101120.746,410,267.928
101154.022,470,326.994
101187.402,410,267.803
101220.676,470,327.019
101254.064,410,267.998
101287.338,470,327.202
101320.722,410,267.737
101353.995,470,327.148
101387.379,410,267.754
101420.652,470,327.207
101454.035,410,267.968
101487.310,470,327.102
101520.692,410,268.000
101553.968,470,327.164
101587.349,410,267.805
101620.624,470,327.142
101654.012,410,267.921
101687.280,470,327.199
101720.668,410,267.963
101753.938,470,327.231
101787.326,410,267.950
101820.601,470,327.197
101853.982,410,267.839
101887.256,470,327.027
101920.642,410,267.882
101953.915,470,327.048
101987.303,410,267.733
102020.569,470,326.847
102053.956,410,267.827
102087.226,470,326.980
102120.615,410,267.875
102153.883,470,327.128
102187.277,410,267.653
102220.545,470,327.174
102253.931,410,267.747
102287.199,470,327.168
102320.593,410,267.827
102353.862,470,327.114
102387.249,410,267.815
102420.514,470,327.062
102453.909,410,267.792
102487.174,470,327.039
102520.564,410,267.904
102553.836,470,327.235
102587.224,410,267.659
102620.487,470,327.240
102653.881,410,267.804
102687.147,470,327.083
102720.538,410,267.843
102753.807,470,327.134
102787.194,410,267.824
102820.461,470,327.097
102853.851,410,267.851
102887.123,470,327.078
102920.512,410,267.842
102953.776,470,327.152
102987.168,410,267.896
103020.438,470,326.998
103053.830,410,267.839
103087.097,470,327.054
103120.488,410,267.884
103153.754,470,327.119
103187.142,410,267.733
103220.408,470,327.074
103253.801,410,267.576
103287.065,470,326.944
103320.457,410,267.792
103353.727,470,326.825
103387.119,410,267.795
103420.383,470,326.843
103453.777,410,267.712
103487.042,470,326.952
103520.432,410,267.738
103553.699,470,326.954
103587.092,410,267.772
103620.354,470,326.966
103653.749,410,267.674
103687.014,470,327.057
103720.410,410,267.744
103753.674,470,326.998
103787.065,410,267.644
103820.329,470,327.021
103853.721,410,267.754
103886.990,470,326.999
103920.377,410,267.799
103953.644,470,326.872
103987.040,410,267.785
104020.302,470,327.059
104053.696,410,267.706
104086.961,470,327.018
104120.353,410,267.725
104153.621,470,326.909
104187.010,410,267.578
104220.278,470,326.977
104253.665,410,267.810
104286.932,470,326.842
104320.324,410,267.907
104353.589,470,326.931
104386.981,410,267.667
104420.254,470,326.938
104453.642,410,267.693
104486.910,470,327.049
104520.299,410,267.645
104553.566,470,327.009
104586.959,410,267.649
104620.224,470,326.960
104653.615,410,267.617
104686.884,470,326.942
104720.270,410,267.709
104753.541,470,326.922
104786.932,410,267.733
104820.201,470,326.925
104853.587,410,267.701
104886.858,470,326.973
104920.242,410,267.492
104953.518,470,327.032
104986.901,410,267.849
105020.176,470,326.859
105053.560,410,267.829
105086.834,470,326.956
105120.217,410,267.579
105153.492,470,326.889
105186.873,410,267.582
105220.150,470,326.985
105253.533,410,267.624
105286.803,470,326.984
105320.188,410,267.709
105353.464,470,326.943
105386.850,410,267.680
105420.121,470,327.050
105453.505,410,267.687
105486.777,470,326.861
105520.162,410,267.568
105553.434,470,326.756
105586.819,410,267.716
105620.097,470,326.818
105653.475,410,267.564
105686.750,470,327.076
105720.133,410,267.588
105753.408,470,326.965
105786.795,410,267.624
105820.073,470,326.902
105853.451,410,267.500
105886.729,470,327.042
105920.106,410,267.530
105953.387,470,326.824
105986.764,410,267.721
106020.044,470,327.018
106053.422,410,267.508
106086.699,470,326.968
106120.081,410,267.730
106153.361,470,326.872
106186.734,410,267.629
106220.014,470,326.958
106253.395,410,267.628
106286.676,470,326.799
106320.052,410,267.595
106353.336,470,326.890
106386.713,410,267.542
106419.991,470,326.809
106453.371,410,267.555
106486.650,470,326.792
106520.024,410,267.520
106553.306,470,326.961
106586.685,410,267.545
106619.964,470,326.804
106653.338,410,267.463
106686.624,470,326.728
106719.995,410,267.483
106753.282,470,326.916
106786.658,410,267.553
106819.941,470,326.877
106853.315,410,267.582
106886.601,470,326.817
106919.970,410,267.561
106953.259,470,326.851
106986.628,410,267.678
107019.918,470,326.809
107053.288,410,267.579
107086.571,470,326.735
107119.944,410,267.493
107153.229,470,326.744
107186.604,410,267.485
107219.890,470,326.747
107253.256,410,267.535
107286.550,470,326.973
107319.914,410,267.509
107353.207,470,326.770
107386.574,410,267.648
107419.862,470,326.934
107453.232,410,267.581
107486.521,470,326.809
107519.889,410,267.614
107553.181,470,326.817
107586.545,410,267.741
107619.834,470,326.625
107653.201,410,267.433
107686.495,470,326.812
107719.860,410,267.413
107753.151,470,326.697
107786.518,410,267.636
107819.813,470,326.585
107853.178,410,267.578
107886.470,470,326.700
107919.835,410,267.513
107953.124,470,326.627
107986.489,410,267.500
108019.787,470,326.995
108053.150,410,267.479
108086.444,470,326.656
108119.806,410,267.459
108153.104,470,326.681
108186.461,410,267.456
108219.759,470,326.642
108253.124,410,267.389
108286.420,470,326.670
108319.776,410,267.401
108353.072,470,326.722
108386.437,410,267.491
108419.732,470,326.607
108453.097,410,267.525
108486.388,470,326.648
108519.754,410,267.571
108553.049,470,326.705
108586.407,410,267.435
108619.705,470,326.692
108653.069,410,267.450
108686.363,470,326.652
108719.727,410,267.370
108753.022,470,326.594
108786.385,410,267.290
108819.679,470,326.477
108853.042,410,267.494
108886.338,470,326.786
108919.701,410,267.422
108952.998,470,326.565
108986.358,410,267.333
109019.657,470,326.773
109053.009,410,267.440
109086.313,470,326.740
109119.673,410,267.436
109152.968,470,326.602
109186.330,410,267.305
109219.628,470,326.644
109252.986,410,267.390
109286.284,470,326.678
109319.646,410,267.470
109352.944,470,326.798
109386.301,410,267.412
109419.604,470,326.678
109452.956,410,267.362
109486.258,470,326.581
109519.616,410,267.339
109552.917,470,326.503
109586.269,410,267.358
109619.576,470,326.619
109652.928,410,267.406
109686.235,470,326.646
109719.587,410,267.260
109752.894,470,326.556
109786.246,410,267.207
109819.552,470,326.680
109852.906,410,267.288
109886.208,470,326.727
109919.558,410,267.417
109952.871,470,326.788
109986.220,410,267.475
110019.523,470,326.565
110052.875,410,267.478
110086.186,470,326.597
110119.534,410,267.250
110152.840,470,326.500
110186.190,410,267.307
110219.502,470,326.672
110252.850,410,267.445
110286.160,470,326.575
110319.509,410,267.357
110352.813,470,326.636
110386.165,410,267.256
110419.471,470,326.686
110452.821,410,267.333
110486.134,470,326.502
110519.480,410,267.394
110552.791,470,326.549
110586.138,410,267.453
110619.451,470,326.559
110652.789,410,267.227
110686.104,470,326.566
110719.453,410,267.167
110752.766,470,326.640
110786.111,410,267.283
110819.425,470,326.524
110852.766,410,267.263
110886.080,470,326.531
110919.423,410,267.191
110952.740,470,326.592
110986.082,410,267.427
111019.394,470,326.570
111052.737,410,267.234
111086.051,470,326.633
111119.399,410,267.278
111152.710,470,326.573
111186.050,410,267.239
111219.372,470,326.576
111252.709,410,267.262
111286.027,470,326.445
111319.365,410,267.348
111352.683,470,326.601
111386.025,410,267.416
111419.341,470,326.478
111452.681,410,267.183
111486.005,470,326.641
111519.343,410,267.316
111552.662,470,326.416
111585.997,410,267.309
111619.315,470,326.613
111652.656,410,267.248
111685.975,470,326.417
111719.311,410,267.220
111752.632,470,326.552
111785.969,410,267.322
111819.294,470,326.471
111852.629,410,267.226
111885.951,470,326.294
111919.287,410,267.235
111952.611,470,326.363
111985.944,410,267.263
112019.266,470,326.399
112052.601,410,267.088
112085.923,470,326.594
112119.261,410,267.248
112152.588,470,326.384
112185.919,410,267.189
112219.243,470,326.632
112252.576,410,267.242
112285.899,470,326.429
112319.235,410,267.243
112352.560,470,326.516
112385.894,410,267.147
112419.218,470,326.350
112452.553,410,267.318
112485.878,470,326.485
112519.207,410,267.147
112552.539,470,326.421
112585.870,410,267.203
112619.193,470,326.361
112652.529,410,267.258
112685.855,470,326.500
112719.183,410,267.181
112752.512,470,326.307
112785.841,410,267.278
112819.172,470,326.372
112852.504,410,267.109
112885.829,470,326.368
112919.156,410,267.263
112952.493,470,326.548
112985.815,410,267.175
113019.152,470,326.519
113052.473,410,267.152
113085.806,470,326.531
113119.133,410,267.164
113152.464,470,326.522
113185.792,410,267.295
113219.125,470,326.734
113252.450,410,267.186
113285.787,470,326.402
113319.111,410,267.223
113352.446,470,326.542
113385.765,410,267.154
113419.101,470,326.344
113452.422,410,267.224
113485.758,470,326.389
113519.086,410,267.232
113552.421,470,326.337
113585.742,410,267.030
113619.079,470,326.507
113652.398,410,267.060
113685.734,470,326.379
113719.058,410,267.198
113752.397,470,326.361
113785.719,410,267.105
113819.052,470,326.315
113852.374,410,267.199
113885.714,470,326.482
113919.036,410,267.241
113952.373,470,326.204
113985.690,410,267.090
114019.029,470,326.330
114052.353,410,267.146
114085.692,470,326.273
114119.008,410,267.072
114152.348,470,326.352
114185.669,410,267.009
114219.010,470,326.342
114252.325,410,267.248
114285.667,470,326.246
114318.984,410,267.049
114352.327,470,326.257
114385.638,410,266.965
114418.981,470,326.222
114452.297,410,267.073
114485.640,470,326.311
114518.961,410,266.956
114552.300,470,326.489
114585.618,410,266.879
114618.956,470,326.325
114652.271,410,267.093
114685.617,470,326.261
114718.934,410,267.125
114752.278,470,326.275
114785.593,410,267.118
114818.938,470,326.205
114852.247,410,267.136
114885.592,470,326.176
114918.909,410,267.091
114952.252,470,326.354
114985.566,410,267.068
115018.913,470,326.499
115052.223,410,267.119
115085.574,470,326.512
115118.885,410,266.940
115152.227,470,326.404
115185.543,410,267.215
115218.888,470,326.372
115252.199,410,267.045
115285.545,470,326.295
115318.855,410,267.025
115352.205,470,326.244
115385.516,410,267.181
115418.865,470,326.278
115452.176,410,267.040
115485.528,470,326.392
115518.833,410,267.036
115552.181,470,326.248
115585.490,410,267.192
115618.839,470,326.460
115652.149,410,267.068
115685.498,470,326.302
115718.809,410,266.876
115752.156,470,326.066
115785.462,410,267.152
115818.822,470,326.228
115852.122,410,266.926
115885.480,470,326.226
115918.782,410,267.103
115952.136,470,326.129
115985.439,410,266.874
116018.791,470,326.391
116052.097,410,267.130
116085.457,470,326.304
116118.757,410,267.076
116152.110,470,326.176
116185.414,410,266.975
116218.768,470,326.337
116252.070,410,267.033
116285.430,470,326.196
116318.729,410,267.106
116352.089,470,326.227
116385.392,410,266.967
116418.745,470,326.317
116452.050,410,267.089
116485.407,470,326.273
116518.707,410,266.853
116552.065,470,326.337
116585.365,410,267.013
116618.722,470,326.187
116652.020,410,266.867
116685.384,470,326.160
116718.679,410,266.911
116752.043,470,326.162
116785.339,410,267.020
116818.699,470,326.216
116851.998,410,266.880
116885.362,470,326.068
116918.656,410,266.982
116952.016,470,325.990
116985.314,410,266.853
117018.675,470,326.066
117051.972,410,266.811
117085.336,470,326.295
117118.632,410,267.030
117151.992,470,326.296
117185.289,410,266.904
117218.651,470,326.280
117251.948,410,266.951
117285.311,470,326.204
117318.603,410,266.955
117351.973,470,326.109
117385.264,410,267.001
117418.631,470,326.130
117451.919,410,267.038
117485.290,470,326.221
117518.582,410,266.846
117551.948,470,326.219
117585.240,410,266.870
117618.606,470,326.166
117651.894,410,267.019
117685.264,470,326.046
117718.552,410,266.907
117751.923,470,326.010
117785.216,410,266.817
117818.583,470,326.145
117851.870,410,266.801
117885.240,470,326.064
117918.527,410,266.981
117951.899,470,325.942
117985.186,410,266.878
118018.559,470,326.068
118051.843,410,266.874
118085.217,470,326.050
118118.507,410,267.089
118151.877,470,326.225
118185.161,410,266.848
118218.533,470,326.166
118251.822,410,266.882
118285.195,470,326.108
118318.479,410,267.043
118351.856,470,326.194
118385.139,410,266.926
118418.514,470,325.882
118451.795,410,266.857
118485.170,470,325.992
118518.454,410,266.870
118551.828,470,326.067
118585.114,410,266.852
118618.490,470,326.190
118651.773,410,266.833
118685.147,470,326.090
118718.426,410,266.795
118751.808,470,326.076
118785.090,410,266.781
118818.468,470,326.149
118851.742,410,266.677
118885.123,470,326.104
118918.401,410,266.713
118951.784,470,326.098
118985.060,410,266.706
119018.443,470,326.125
119051.720,410,266.925
119085.100,470,325.997
119118.380,410,266.611
119151.758,470,325.968
119185.036,410,266.954
119218.418,470,325.987
119251.698,410,266.905
119285.077,470,325.988
119318.350,410,266.653
119351.733,470,326.117
119385.009,410,266.703
119418.393,470,326.089
119451.668,410,266.681
119485.051,470,326.050
119518.326,410,266.587
119551.715,470,325.872
119584.988,410,266.839
119618.372,470,325.970
119651.644,410,266.825
119685.032,470,325.874
119718.305,410,266.696
119751.691,470,325.953
119784.960,410,266.721
119818.351,470,325.999
119851.619,410,266.628
119885.005,470,325.860
119918.277,410,266.719
119951.668,470,325.971
119984.938,410,266.732
120018.322,470,325.861
120051.594,410,266.849
120084.981,470,325.995
120118.251,410,266.857
120151.636,470,325.955
120184.906,410,266.859
120218.295,470,326.038
120251.566,410,266.837
120284.949,470,325.973
120318.223,410,266.680
120351.606,470,326.128
120384.880,410,266.762
120418.264,470,326.033
120451.535,410,266.664
120484.920,470,325.901
120518.198,410,266.794
120551.576,470,325.844
120584.854,410,266.735
120618.235,470,325.847
120651.510,410,266.644
120684.890,470,325.859
120718.171,410,266.656
120751.548,470,325.861
120784.830,410,266.619
120818.207,470,325.872
120851.482,410,266.562
120884.868,470,325.888
120918.142,410,266.679
120951.524,470,325.850
120984.797,410,266.642
121018.175,470,325.767
121051.459,410,266.682
121084.837,470,326.003
121118.114,410,266.778
121151.492,470,326.072
121184.772,410,266.573
121218.151,470,325.890
121251.429,410,266.688
121284.804,470,325.921
121318.088,410,266.797
121351.464,470,325.891
121384.743,410,266.657
121418.118,470,325.856
121451.399,410,266.780
121484.775,470,325.745
121518.059,410,266.629
121551.433,470,325.877
121584.718,410,266.763
121618.092,470,325.863
121651.376,410,266.734
121684.749,470,325.730
121718.033,410,266.738
121751.408,470,326.009
121784.693,410,266.544
121818.065,470,325.955
121851.345,410,266.650
121884.718,470,325.975
121918.005,410,266.633
121951.376,470,325.623
121984.666,410,266.533
122018.030,470,325.690
122051.323,410,266.536
122084.692,470,325.956
122117.978,410,266.602
122151.346,470,325.777
122184.632,410,266.636
122218.003,470,325.876
122251.295,410,266.526
122284.661,470,325.873
122317.953,410,266.641
122351.316,470,325.844
122384.611,410,266.729
122417.973,470,325.781
122451.264,410,266.441
122484.635,470,325.850
122517.926,410,266.712
122551.292,470,325.765
122584.584,410,266.414
122617.944,470,325.791
122651.239,410,266.780
122684.605,470,325.754
122717.899,410,266.562
122751.263,470,325.919
122784.554,410,266.539
122817.915,470,325.803
122851.212,410,266.508
122884.572,470,325.730
122917.869,410,266.453
122951.234,470,325.749
122984.524,410,266.464
123017.890,470,325.829
123051.185,410,266.422
123084.543,470,325.691
123117.841,410,266.779
123151.203,470,325.901
123184.499,410,266.647
123217.859,470,325.839
123251.160,410,266.551
123284.513,470,325.678
123317.813,410,266.502
123351.176,470,325.899
123384.470,410,266.556
123417.833,470,325.707
123451.128,410,266.565
123484.487,470,325.665
123517.790,410,266.477
123551.142,470,325.747
123584.441,410,266.463
123617.803,470,325.719
123651.102,410,266.567
123684.456,470,325.739
123717.756,410,266.504
123751.114,470,325.788
123784.420,410,266.450
123817.769,470,325.776
123851.072,410,266.524
123884.426,470,325.781
123917.731,410,266.398
123951.088,470,325.719
123984.392,410,266.486
124017.739,470,325.662
124051.050,410,266.464
124084.403,470,325.852
124117.708,410,266.578
124151.059,470,325.718
124184.364,410,266.534
124217.715,470,325.734
124251.017,410,266.451
124284.370,470,325.674
124317.679,410,266.590
124351.027,470,325.540
124384.336,410,266.484
124417.685,470,325.575
124450.992,410,266.386
124484.343,470,325.649
124517.652,410,266.407
124550.997,470,325.628
124584.307,410,266.525
124617.653,470,325.640
124650.964,410,266.463
124684.313,470,325.683
124717.622,410,266.354
124750.965,470,325.446
124784.278,410,266.429
124817.627,470,325.626
124850.940,410,266.403
124884.285,470,325.649
124917.594,410,266.439
124950.937,470,325.586
124984.251,410,266.410
125017.596,470,325.691
125050.910,410,266.437
125084.253,470,325.716
125117.569,410,266.548
125150.911,470,325.767
125184.226,410,266.485
125217.568,470,325.592
125250.885,410,266.340
125284.225,470,325.777
125317.542,410,266.449
125350.878,470,325.731
125384.200,410,266.283
125417.535,470,325.664
125450.856,410,266.448
125484.195,470,325.692
125517.514,410,266.491
125550.855,470,325.711
125584.168,410,266.378
125617.507,470,325.456
125650.828,410,266.431
125684.167,470,325.764
125717.488,410,266.496
125750.819,470,325.487
125784.142,410,266.535
125817.480,470,325.705
125850.800,410,266.247
125884.136,470,325.676
125917.461,410,266.365
125950.795,470,325.620
125984.113,410,266.578
126017.453,470,325.632
126050.774,410,266.338
126084.108,470,325.659
126117.431,410,266.449
126150.767,470,325.675
126184.090,410,266.316
126217.419,470,325.643
126250.749,410,266.500
126284.077,470,325.772
126317.403,410,266.338
126350.735,470,325.598
126384.060,410,266.202
126417.395,470,325.695
126450.720,410,266.406
126484.050,470,325.747
126517.376,410,266.555
126550.703,470,325.595
126584.036,410,266.463
126617.362,470,325.665
126650.693,410,266.337
126684.021,470,325.589
126717.352,410,266.386
126750.676,470,325.609
126784.005,410,266.238
126817.336,470,325.366
126850.661,410,266.430
126883.992,470,325.575
126917.320,410,266.331
126950.646,470,325.588
126983.978,410,266.514
127017.305,470,325.638
127050.637,410,266.310
127083.958,470,325.639
127117.292,410,266.488
127150.615,470,325.470
127183.952,410,266.359
127217.274,470,325.565
127250.606,410,266.369
127283.933,470,325.445
127317.268,410,266.408
127350.591,470,325.525
127383.923,410,266.239
127417.246,470,325.647
127450.581,410,266.309
127483.901,470,325.589
127517.241,410,266.503
127550.557,470,325.555
127583.900,410,266.517
127617.216,470,325.561
127650.557,410,266.233
127683.873,470,325.573
127717.210,410,266.445
127750.527,470,325.634
127783.873,410,266.296
127817.183,470,325.638
127850.528,410,266.211
127883.843,470,325.439
127917.186,410,266.334
127950.502,470,325.315
127983.844,410,266.349
128017.156,470,325.444
128050.498,410,266.410
128083.813,470,325.511
128117.160,410,266.119
128150.475,470,325.473
128183.820,410,266.259
128217.130,470,325.741
128250.475,410,266.238
128283.791,470,325.586
128317.136,410,266.291
128350.450,470,325.598
128383.796,410,266.322
128417.106,470,325.517
128450.452,410,266.262
128483.762,470,325.546
128517.111,410,266.228
128550.423,470,325.495
128583.770,410,266.264
128617.079,470,325.515
128650.430,410,266.342
128683.737,470,325.470
128717.084,410,266.275
128750.397,470,325.397
128783.744,410,266.251
128817.054,470,325.471
128850.404,410,266.362
128883.712,470,325.332
128917.059,410,266.174
128950.365,470,325.530
128983.716,410,266.269
129017.026,470,325.574
129050.379,410,266.245
129083.685,470,325.493
129117.033,410,266.133
129150.344,470,325.604
129183.694,410,266.420
129216.997,470,325.641
129250.354,410,266.413
129283.658,470,325.640
129317.012,410,266.250
129350.317,470,325.412
129383.665,410,266.273
129416.971,470,325.324
129450.324,410,266.289
129483.627,470,325.472
129516.984,410,266.352
129550.286,470,325.600
129583.641,410,266.234
129616.947,470,325.496
129650.303,410,266.287
129683.601,470,325.473
129716.963,410,266.255
129750.264,470,325.471
129783.617,410,266.131
129816.918,470,325.532
129850.275,410,266.262
129883.577,470,325.365
129916.936,410,266.088
129950.234,470,325.568
129983.591,410,266.296
130016.893,470,325.225
130050.254,410,266.345
130083.550,470,325.538
130116.908,410,266.171
130150.208,470,325.554
130183.569,410,266.179
130216.867,470,325.331
130250.223,410,266.299
130283.526,470,325.293
130316.883,410,266.224
130350.183,470,325.495
130383.543,410,266.184
130416.839,470,325.473
130450.203,410,266.356
130483.499,470,325.381
130516.860,410,266.339
130550.155,470,325.444
130583.518,410,266.087
130616.816,470,325.406
130650.177,410,266.242
130683.468,470,325.378
130716.835,410,266.241
130750.128,470,325.491
130783.490,410,266.186
130816.788,470,325.316
130850.148,410,266.227
130883.446,470,325.435
130916.808,410,266.179
130950.099,470,325.506
130983.470,410,266.138
131016.761,470,325.583
131050.124,410,266.145
131083.416,470,325.394
131116.785,410,266.208
131150.073,470,325.368
131183.441,410,266.201
131216.733,470,325.360
131250.104,410,266.229
131283.392,470,325.299
131316.760,410,266.054
131350.049,470,325.306
131383.419,410,266.123
131416.706,470,325.290
131450.073,410,266.184
131483.366,470,325.496
131516.736,410,266.197
131550.026,470,325.362
131583.395,410,266.140
131616.680,470,325.302
131650.049,410,266.065
131683.340,470,325.475
131716.711,410,266.225
131749.996,470,325.370
131783.371,410,266.224
131816.654,470,325.449
131850.029,410,266.161
131883.311,470,325.396
131916.683,410,266.153
131949.968,470,325.212
131983.344,410,265.992
132016.630,470,325.298
132049.998,410,266.266
132083.287,470,325.258
132116.658,410,266.109
132149.946,470,325.433
132183.318,410,266.164
132216.603,470,325.265
132249.975,410,266.091
132283.257,470,325.397
132316.635,410,265.996
132349.916,470,325.466
132383.294,410,266.130
132416.572,470,325.149
132449.952,410,266.116
132483.233,470,325.263
132516.612,410,266.134
132549.891,470,325.284
132583.270,410,266.155
132616.546,470,325.371
132649.927,410,266.177
132683.207,470,325.357
132716.581,410,266.206
132749.865,470,325.111
132783.242,410,266.217
132816.520,470,325.195
132849.901,410,266.012
132883.180,470,325.399
132916.560,410,266.186
132949.839,470,325.300
132983.221,410,266.153
133016.496,470,325.132
133049.875,410,265.950
133083.153,470,325.268
133116.533,410,266.208
133149.813,470,325.370
133183.194,410,266.064
133216.470,470,325.425
133249.849,410,266.041
133283.128,470,325.295
133316.508,410,266.144
133349.787,470,325.348
133383.169,410,266.150
133416.443,470,325.120
133449.827,410,266.055
133483.099,470,325.267
133516.485,410,266.061
133549.758,470,325.317
133583.142,410,265.982
133616.412,470,325.258
133649.799,410,265.834
133683.071,470,325.377
133716.458,410,266.142
133749.730,470,325.452
133783.118,410,266.003
133816.389,470,325.304
133849.779,410,265.987
133883.049,470,325.415
133916.432,410,266.082
133949.702,470,325.309
133983.092,410,265.927
134016.364,470,325.302
134049.752,410,265.965
134083.017,470,325.146
134116.410,410,266.003
134149.678,470,325.347
134183.069,410,265.974
134216.334,470,325.374
134249.729,410,265.957
134282.992,470,325.334
134316.384,410,265.950
134349.654,470,325.344
134383.044,410,266.012
134416.311,470,325.312
134449.702,410,265.943
134482.967,470,325.168
134516.357,410,266.024
134549.622,470,325.456
134583.015,410,266.010
134616.283,470,325.267
134649.678,410,266.127
134682.942,470,325.280
134716.338,410,266.007
134749.597,470,325.171
134782.991,410,266.111
134816.257,470,325.228
134849.649,410,265.995
134882.913,470,325.235
134916.307,410,266.172
134949.571,470,325.163
134982.967,410,265.966
135016.229,470,325.280
135049.626,410,266.018
135082.889,470,325.377
135116.281,410,266.013
135149.543,470,325.273
135182.941,410,265.985
135216.206,470,325.383
135249.602,410,266.162
135282.857,470,325.265
135316.263,410,265.909
135349.521,470,325.229
135382.918,410,266.097
135416.178,470,325.312
135449.577,410,265.956
135482.830,470,325.238
135516.236,410,266.012
135549.492,470,325.247
135582.894,410,265.859
135616.146,470,325.159
135649.553,410,266.016
135682.808,470,325.233
135716.207,410,266.103
135749.463,470,325.383
135782.868,410,265.937
135816.121,470,325.091
135849.528,410,265.931
135882.779,470,325.137
135916.182,410,266.052
135949.435,470,325.236
135982.845,410,265.884
136016.099,470,325.234
136049.497,410,265.881
136082.752,470,325.270
136116.159,410,265.994
136149.413,470,325.067
136182.815,410,265.837
136216.070,470,325.201
136249.473,410,265.920
136282.727,470,325.425
136316.127,410,266.025
136349.386,470,325.193
136382.790,410,266.000
136416.047,470,325.224
136449.449,410,265.935
136482.706,470,325.262
136516.101,410,266.144
136549.364,470,325.168
136582.758,410,265.990
136616.025,470,325.354
136649.421,410,266.004
136682.678,470,325.514
136716.078,410,265.896
136749.336,470,325.302
136782.733,410,265.875
136815.999,470,325.272
136849.390,410,265.813
136882.653,470,325.196
136916.047,410,265.960
136949.311,470,325.171
136982.706,410,265.893
137015.976,470,325.232
137049.365,410,266.012
137082.629,470,325.217
137116.020,410,265.913
137149.292,470,325.225
137182.677,410,265.812
137215.949,470,325.193
137249.340,410,265.928
137282.607,470,325.219
137315.995,410,265.939
137349.267,470,325.102
137382.653,410,265.988
137415.920,470,325.142
137449.312,410,266.089
137482.581,470,325.159
137515.969,410,265.952
137549.241,470,325.278
137582.625,410,265.994
137615.899,470,325.191
137649.285,410,265.872
137682.559,470,325.262
137715.940,410,265.797
137749.212,470,325.314
137782.601,410,265.936
137815.870,470,325.176
137849.259,410,265.958
137882.530,470,325.113
137915.911,410,265.925
137949.192,470,325.231
137982.575,410,265.997
138015.845,470,325.361
138049.227,410,265.839
138082.503,470,325.121
138115.885,410,265.963
138149.164,470,325.126
138182.542,410,265.853
138215.821,470,325.158
138249.203,410,265.850
138282.480,470,325.127
138315.858,410,265.992
138349.143,470,325.098
138382.518,410,265.926
138415.800,470,325.264
138449.178,410,265.870
138482.459,470,325.163
138515.830,410,265.835
138549.117,470,325.207
138582.489,410,265.866
138615.774,470,325.218
138649.145,410,265.979
138682.436,470,325.105
138715.802,410,265.845
138749.088,470,325.222
138782.466,410,265.895
138815.747,470,325.175
138849.119,410,265.709
138882.410,470,325.242
138915.779,410,265.881
138949.069,470,325.034
138982.437,410,265.847
139015.727,470,325.133
139049.091,410,265.833
139082.385,470,325.032
139115.749,410,266.010
139149.042,470,325.225
139182.410,410,265.810
139215.699,470,325.257
139249.069,410,265.648
139282.356,470,325.140
139315.720,410,265.944
139349.017,470,324.981
139382.382,410,265.780
139415.677,470,325.192
139449.041,410,265.819
139482.333,470,325.180
139515.696,410,265.660
139548.991,470,325.046
139582.354,410,265.829
139615.652,470,325.103
139649.011,410,265.896
139682.309,470,325.072
139715.670,410,265.916
139748.965,470,325.048
139782.330,410,265.728
139815.623,470,325.133
139848.985,410,265.796
139882.280,470,325.185
139915.645,410,265.812
139948.944,470,325.032
139982.301,410,265.772
140015.602,470,325.084
140048.958,410,265.854
140082.262,470,325.072
140115.617,410,265.785
140148.918,470,325.109
140182.270,410,265.663
140215.573,470,325.007
140248.928,410,265.882
140282.232,470,325.165
140315.588,410,266.036
140348.895,470,325.033
140382.245,410,265.814
140415.548,470,325.154
140448.900,410,265.850
140482.210,470,325.136
140515.558,410,265.809
140548.870,470,325.160
140582.218,410,265.702
140615.528,470,325.150
140648.876,410,265.950
140682.183,470,325.012
140715.534,410,265.819
140748.841,470,325.221
140782.193,410,265.655
140815.504,470,324.952
140848.852,410,265.640
140882.156,470,325.003
140915.504,410,265.768
140948.821,470,325.008
140982.166,410,265.682
141015.474,470,325.038
141048.824,410,265.801
141082.134,470,325.077
141115.479,410,265.806
141148.791,470,325.081
141182.140,410,265.778
141215.450,470,325.045
141248.796,410,265.730
141282.108,470,325.177
141315.454,410,265.942
141348.771,470,325.112
141382.110,410,265.889
141415.427,470,325.103
141448.766,410,265.693
141482.087,470,325.002
141515.425,410,265.799
141548.743,470,325.143
141582.079,410,265.722
141615.399,470,324.958
