{"Light":{"Led410Enable":true;"Led470Enable":true;"Led560Enable":false;"Led410Value":50.0;"Led470Value":50.0;"Led560Value":100.0};"Excitation":{"mode":1;"discontinuous":false;"interval_time":1;"continuous_time":1};"Channels":[{"Name":"CH1";"ChanelColor":"#00000000";"Roi1":"346.171830985915;250.583098591549;96.1521126760566;96.1521126760566";"Roi2":"319;227;96.1521126760566;96.1521126760566"}];"AllMarking":[{"id":0;"type":1;"opened":true;"name":"STIM";"Levels":0;"color":"#FFFF0000";"key":0;"threshold":0.0;"ID":"0";"all":true;"channels":["AllChannel";"CH1"];"enable":true};{"id":0;"type":2;"opened":true;"name":"Input1";"Levels":0;"color":"#FFFF0000";"key":0;"threshold":0.0;"ID":"0";"all":true;"channels":["AllChannel";"CH1"];"enable":true};{"id":0;"type":2;"opened":true;"name":"Input2";"Levels":0;"color":"#FF604A7B";"key":0;"threshold":0.0;"ID":"0";"all":true;"channels":["AllChannel";"CH1"];"enable":true};{"id":0;"type":2;"opened":true;"name":"Input3";"Levels":0;"color":"#FF92D050";"key":0;"threshold":0.0;"ID":"0";"all":true;"channels":["AllChannel";"CH1"];"enable":true};{"id":0;"type":2;"opened":true;"name":"Input4";"Levels":0;"color":"#FF0099FF";"key":0;"threshold":0.0;"ID":"0";"all":true;"channels":["AllChannel";"CH1"];"enable":true}];"Fps":30.0}
TimeStamp,Events,CH1-410,CH1-470,
0.000,,297.034,354.889,
66.661,,296.631,354.646,
133.328,,296.360,354.372,
199.997,,296.086,353.968,
266.662,,295.934,353.510,
333.329,,295.389,352.810,
400.000,,295.230,352.445,
466.667,,294.817,352.124,
533.329,,294.378,351.743,
600.001,,294.148,351.522,
666.666,,294.058,351.310,
733.332,,293.766,351.066,
800.000,,293.592,350.873,
866.665,,293.210,350.854,
933.332,,293.359,350.524,
999.999,,293.103,350.300,
1066.663,,292.925,350.200,
1133.333,,292.604,349.788,
1199.996,,292.666,349.531,
1266.662,,292.391,349.426,
1333.334,,292.348,349.257,
1399.995,,292.056,349.011,
1466.664,,291.855,348.979,
1533.332,,291.737,348.659,
1599.998,,291.742,348.590,
1666.666,,291.568,348.584,
1733.331,,291.485,348.679,
1799.995,,291.468,348.501,
1866.664,,291.491,348.749,
1933.332,,291.621,348.484,
2000.000,,291.404,348.329,
2066.665,,291.447,348.433,
2133.328,,291.374,348.324,
2199.995,,291.433,348.420,
2266.661,,291.305,348.135,
2333.329,,291.183,347.947,
2399.994,,291.152,348.005,
2466.668,,291.079,347.981,
2533.333,,291.043,348.001,
2599.998,,290.920,347.732,
2666.663,,290.917,347.903,
2733.329,,290.611,347.630,
2800.001,,290.659,347.558,
2866.662,,290.631,347.599,
2933.334,,290.685,347.423,
3000.000,,290.514,347.678,
3066.662,,290.497,347.533,
3133.333,,290.419,347.295,
3199.997,,290.538,347.136,
3266.662,,290.395,347.078,
3333.333,,290.271,347.260,
3399.995,,290.327,347.187,
3466.667,,290.132,346.980,
3533.329,,289.991,346.942,
3600.000,,289.860,347.082,
3666.664,,289.878,346.821,
3733.329,,289.970,346.993,
3799.997,,289.856,346.795,
3866.664,,289.766,346.669,
3933.329,,289.771,346.744,
3999.995,,289.738,346.502,
4066.667,,289.791,346.611,
4133.333,,289.759,346.539,
4199.997,,289.629,346.466,
4266.666,,289.374,346.271,
4333.333,,289.456,346.192,
4399.999,,289.409,346.449,
4466.661,,289.389,346.097,
4533.330,,289.348,346.312,
4600.000,,289.193,346.173,
4666.666,,289.285,346.292,
4733.330,,289.206,346.134,
4800.000,,289.112,346.145,
4866.663,,288.995,346.214,
4933.332,,289.158,346.008,
5000.001,,288.919,345.908,
5066.667,,288.967,345.993,
5133.328,,288.901,345.859,
5200.000,,289.036,345.738,
5266.664,,288.927,345.751,
5333.332,,288.865,345.671,
5399.995,,288.764,345.682,
5466.668,,288.790,345.721,
5533.334,,288.752,345.739,
5599.997,,288.568,345.643,
5666.667,,288.482,345.500,
5733.334,,288.549,345.626,
5800.000,,288.565,345.686,
5866.667,,288.546,345.450,
5933.332,,288.392,345.346,
5999.995,,288.380,345.400,
6066.668,,288.485,345.470,
6133.332,,288.405,345.318,
6199.996,,288.308,345.435,
6266.662,,288.298,345.329,
6333.329,,288.275,345.144,
6399.995,,288.206,344.985,
6466.667,,288.064,345.080,
6533.333,,288.206,345.175,
6599.997,,287.882,345.087,
6666.667,,287.985,345.039,
6733.333,,287.916,345.107,
6799.995,,287.850,344.945,
6866.666,,287.888,344.960,
6933.330,,287.770,344.974,
7000.001,,287.705,344.782,
7066.662,,287.861,345.103,
7133.334,,287.831,344.939,
7200.001,,287.803,344.819,
7266.662,,287.927,344.715,
7333.333,,287.586,344.763,
7399.996,,287.733,344.822,
7466.667,,287.749,344.644,
7533.334,,287.520,344.470,
7599.997,,287.641,344.554,
7666.665,,287.680,344.565,
7733.328,,287.646,344.725,
7799.995,,287.407,344.651,
7866.663,,287.633,344.413,
7933.334,,287.448,344.322,
8000.000,,287.322,344.392,
8066.665,,287.326,344.352,
8133.333,,287.315,344.265,
8199.998,,287.271,344.460,
8266.666,,287.264,344.157,
8333.334,,287.305,344.258,
8400.000,,287.297,344.362,
8466.667,,287.235,344.219,
8533.330,,287.198,344.263,
8600.001,,287.106,344.199,
8666.662,,287.161,344.238,
8733.334,,287.110,344.104,
8800.000,,286.955,344.044,
8866.661,,287.197,344.123,
8933.332,,286.921,344.033,
8999.995,,287.050,343.960,
9066.664,,286.898,344.129,
9133.333,,286.862,344.179,
9199.996,,286.875,343.886,
9266.663,,286.873,344.151,
9333.329,,286.745,343.837,
9399.999,,286.712,343.828,
9466.663,,286.688,344.023,
9533.331,,286.723,343.767,
9600.000,,286.797,343.790,
9666.666,,286.644,343.776,
9733.329,,286.712,343.821,
9800.001,,286.672,343.714,
9866.664,,286.595,343.642,
9933.331,,286.520,343.806,
9999.995,,286.531,343.814,
10066.662,,286.506,343.603,
10133.332,,286.516,343.603,
10199.996,,286.466,343.676,
10266.667,,286.410,343.518,
10333.329,,286.443,343.610,
10399.999,,286.526,343.481,
10466.665,,286.276,343.438,
10533.330,,286.453,343.429,
10599.996,,286.328,343.396,
10666.663,,286.182,343.260,
10733.329,,286.330,343.611,
10800.000,,286.086,343.316,
10866.666,,286.185,343.279,
10933.333,,286.068,343.241,
10999.999,,286.116,343.246,
11066.665,,286.116,343.519,
11133.330,,286.251,343.284,
11199.997,,286.120,343.360,
11266.663,,286.059,343.062,
11333.334,,286.153,343.228,
11400.000,,285.938,343.059,
11466.666,,285.908,343.134,
11533.331,,286.037,343.089,
11600.001,,286.222,342.898,
11666.666,,285.958,343.221,
11733.328,,285.816,343.004,
11799.995,,285.813,342.957,
11866.666,,285.718,342.906,
11933.333,,285.975,343.031,
12000.001,,285.635,342.998,
12066.666,,285.803,342.949,
12133.330,,285.760,342.943,
12199.996,,285.542,342.894,
12266.662,,285.580,342.918,
12333.328,,285.555,342.738,
12399.999,,285.695,342.840,
12466.667,,285.700,343.103,
12533.329,,285.736,342.846,
12599.995,,285.721,342.774,
12666.667,,285.528,342.737,
12733.332,,285.410,342.921,
12799.996,,285.472,342.722,
12866.666,,285.366,342.898,
12933.332,,285.524,342.759,
12999.998,,285.517,342.721,
13066.664,,285.525,342.699,
13133.334,,285.249,342.805,
13200.000,,285.302,342.471,
13266.662,,285.382,342.583,
13333.332,,285.354,342.377,
13399.995,,285.361,342.588,
13466.664,,285.295,342.515,
13533.328,,285.230,342.577,
13599.995,,285.150,342.473,
13666.663,,285.218,342.526,
13733.334,,285.274,342.498,
13800.000,,285.252,342.493,
13866.665,,285.086,342.412,
13933.333,,285.125,342.476,
14000.001,,285.190,342.606,
14066.667,,285.110,342.476,
14133.334,,285.073,342.508,
14199.996,,284.940,342.387,
14266.663,,285.064,342.445,
14333.330,,285.117,342.495,
14399.996,,285.066,342.388,
14466.663,,284.943,342.298,
14533.330,,284.810,342.262,
14600.000,,284.991,342.256,
14666.665,,284.840,342.145,
14733.333,,284.892,342.171,
14800.000,,284.831,342.440,
14866.665,,284.889,342.057,
14933.330,,284.651,342.271,
14999.997,,284.872,342.213,
15066.664,,284.858,342.210,
15133.330,,284.891,342.120,
15200.001,,284.856,342.142,
15266.665,,284.945,342.005,
15333.330,,284.834,342.045,
15399.996,,284.707,342.085,
15466.662,,284.618,342.023,
15533.333,,284.519,342.037,
15599.996,,284.504,342.243,
15666.661,,284.836,342.118,
15733.329,,284.777,342.081,
15800.000,,284.696,342.054,
15866.666,,284.576,342.122,
15933.329,,284.608,341.939,
15999.988,,284.471,341.930,
16066.638,,284.657,341.835,
16133.287,,284.466,341.904,
16199.941,,284.621,341.941,
16266.593,,284.560,342.053,
16333.251,,284.554,342.094,
16399.898,,284.595,342.052,
16466.556,,284.412,341.846,
16533.202,,284.500,341.951,
16599.857,,284.448,341.979,
16666.511,,284.606,341.730,
16733.158,,284.558,341.751,
16799.811,,284.590,341.883,
16866.467,,284.497,341.810,
16933.118,,284.385,341.797,
16999.763,,284.340,341.801,
17066.419,,284.442,341.669,
17133.072,,284.290,341.759,
17199.723,,284.155,341.864,
17266.369,,284.252,341.736,
17333.023,,284.277,341.541,
17399.674,,284.156,341.617,
17466.325,,283.999,341.395,
17532.971,,283.865,341.526,
17599.624,,283.881,341.392,
17666.274,,284.039,341.680,
17732.924,,283.880,341.454,
17799.576,,283.772,341.256,
17866.224,,283.565,340.980,
17932.876,,282.689,339.909,
17999.520,,282.184,339.742,
18066.170,,282.313,339.751,
18132.820,,282.243,339.728,
18199.471,,282.114,339.598,
18266.123,,282.011,339.614,
18332.772,,282.125,339.552,
18399.416,,281.990,339.499,
18466.067,,281.932,339.241,
18532.719,,281.988,339.374,
18599.364,,281.751,339.224,
18666.014,,281.791,339.409,
18732.665,,282.041,339.471,
18799.308,,281.901,339.259,
18865.958,,281.902,339.702,
18932.606,,282.022,339.487,
18999.257,,281.806,339.677,
19065.904,,282.024,339.466,
19132.550,,281.952,339.403,
19199.200,,281.917,339.446,
19265.847,,281.958,339.357,
19332.493,,281.922,339.493,
19399.140,,281.794,339.310,
19465.786,,281.803,339.339,
19532.431,,281.855,339.286,
19599.081,,281.646,339.182,
19665.724,,281.778,339.423,
19732.372,,281.756,339.296,
19799.023,,281.718,339.402,
19865.669,,281.654,339.320,
19932.311,,281.797,339.228,
19998.963,,281.709,339.209,
20065.603,,281.716,339.166,
20132.255,,281.647,339.191,
20198.899,,281.642,339.223,
20265.543,,281.657,339.140,
20332.187,,281.666,339.327,
20398.835,,281.667,339.277,
20465.479,,281.751,339.326,
20532.126,,281.622,339.269,
20598.769,,281.697,339.370,
20665.417,,281.555,339.410,
20732.058,,281.654,339.053,
20798.704,,281.602,339.464,
20865.348,,281.656,339.245,
20931.997,,281.592,339.350,
20998.637,,281.599,339.328,
21065.282,,281.429,339.124,
21131.928,,281.457,339.098,
21198.574,,281.439,339.118,
21265.216,,281.494,339.220,
21331.862,,281.470,339.253,
21398.502,,281.310,339.021,
21465.150,,281.292,339.029,
21531.791,,281.203,339.129,
21598.435,,281.350,339.118,
21665.076,,281.512,339.032,
21731.722,,281.384,339.029,
21798.367,,281.244,338.997,
21865.005,,281.116,338.967,
21931.653,,281.387,338.925,
21998.293,,281.291,339.171,
22064.938,,281.287,338.828,
22131.581,,281.135,338.800,
22198.223,,281.301,338.996,
22264.861,,281.120,338.801,
22331.506,,281.079,338.774,
22398.151,,281.194,338.706,
22464.792,,281.152,338.724,
22531.432,,281.109,338.875,
22598.073,,281.144,338.663,
22664.714,,280.950,338.684,
22731.358,,281.006,338.771,
22797.996,,281.089,338.899,
22864.643,,281.025,338.748,
22931.280,,280.998,338.808,
22997.922,,280.962,338.826,
23064.560,,281.059,338.764,
23131.205,,280.903,338.727,
23197.845,,280.970,338.522,
23264.483,,280.911,338.593,
23331.124,,280.991,338.602,
23397.765,,280.882,338.698,
23464.409,,280.915,338.688,
23531.045,,280.788,338.515,
23597.689,,280.885,338.734,
23664.331,,280.820,338.667,
23730.970,,280.717,338.541,
23797.606,,280.917,338.417,
23864.246,,280.742,338.396,
23930.884,,280.922,338.562,
23997.547,,280.762,338.597,
24064.202,,280.743,338.501,
24130.860,,280.730,338.581,
24197.519,,280.708,338.467,
24264.180,,280.787,338.664,
24330.836,,280.715,338.539,
24397.495,,280.726,338.439,
24464.149,,280.635,338.697,
24530.812,,280.665,338.411,
24597.471,,280.549,338.448,
24664.125,,280.492,338.511,
24730.783,,280.500,338.560,
24797.440,,280.529,338.526,
24864.098,,280.597,338.474,
24930.762,,280.357,338.344,
24997.417,,280.527,338.268,
25064.074,,280.659,338.219,
25130.730,,280.528,338.424,
25197.390,,280.407,338.154,
25264.053,,280.618,338.296,
25330.706,,280.513,338.466,
25397.367,,280.484,338.400,
25464.023,,280.390,338.323,
25530.679,,280.492,338.404,
25597.336,,280.594,338.296,
25663.999,,280.329,338.414,
25730.654,,280.401,338.464,
25797.312,,280.523,338.419,
25863.973,,280.601,338.155,
25930.632,,280.386,338.386,
25997.290,,280.287,338.362,
26063.948,,280.348,338.403,
26130.602,,280.433,338.312,
26197.263,,280.230,338.357,
26263.918,,280.318,338.206,
26330.580,,280.253,338.236,
26397.232,,280.257,338.170,
26463.894,,280.319,338.095,
26530.548,,280.189,338.311,
26597.209,,280.280,338.246,
26663.869,,280.278,338.123,
26730.525,,280.513,338.162,
26797.183,,280.314,338.300,
26863.842,,280.392,338.350,
26930.494,,280.455,338.357,
26997.156,,280.450,338.289,
27063.813,,280.287,338.222,
27130.469,,280.336,338.101,
27197.129,,280.498,338.184,
27263.786,,280.370,338.339,
27330.441,,280.190,338.170,
27397.099,,280.257,338.185,
27463.758,,280.192,338.206,
27530.417,,280.255,338.203,
27597.072,,280.305,338.117,
27663.733,,280.259,338.296,
27730.387,,280.219,338.266,
27797.046,,280.273,338.200,
27863.707,,280.163,338.319,
27930.364,,280.332,338.200,
27997.023,,280.221,338.326,
28063.677,,280.214,338.171,
28130.336,,280.181,338.200,
28196.997,,280.321,338.209,
28263.654,,280.379,338.501,
28330.306,,280.123,338.289,
28396.970,,280.294,338.243,
28463.627,,280.173,338.288,
28530.283,,280.262,338.276,
28596.938,,280.259,338.314,
28663.601,,280.211,338.296,
28730.254,,280.191,338.164,
28796.914,,280.158,337.926,
28863.568,,280.222,338.267,
28930.226,,280.168,338.068,
28996.887,,280.226,338.306,
29063.540,,280.128,338.270,
29130.199,,280.188,338.244,
29196.856,,280.144,338.188,
29263.513,,280.204,338.224,
29330.175,,280.101,338.326,
29396.832,,280.201,338.259,
29463.485,,280.176,338.188,
29530.144,,280.150,338.129,
29596.806,,280.063,338.262,
29663.461,,280.075,338.213,
29730.120,,280.253,338.003,
29796.773,,279.901,337.968,
29863.431,,279.916,337.978,
29930.090,,279.997,338.169,
29996.747,,279.962,337.953,
30063.405,,280.012,338.024,
30130.059,,279.991,337.887,
30196.717,,279.850,337.909,
30263.380,,279.778,337.900,
30330.032,,279.920,338.020,
30396.692,,279.894,338.071,
30463.351,,279.883,337.952,
30530.003,,279.914,337.945,
30596.664,,279.990,337.961,
30663.318,,279.817,338.004,
30729.980,,279.834,338.145,
30796.633,,279.971,338.054,
30863.291,,279.869,337.792,
30929.951,,279.787,337.885,
30996.609,,279.903,337.854,
31063.266,,279.712,337.814,
31129.922,,280.081,338.129,
31196.577,,279.947,337.970,
31263.239,,279.657,337.847,
31329.894,,279.813,338.102,
31396.554,,279.693,337.959,
31463.204,,279.718,337.871,
31529.868,,279.794,337.852,
31596.520,,279.774,337.839,
31663.178,,279.627,338.019,
31729.837,,279.705,337.879,
31796.492,,279.734,337.686,
31863.148,,279.574,337.893,
31929.805,,279.631,337.940,
31996.466,,279.598,337.890,
32063.127,,279.797,338.033,
32129.787,,279.749,338.123,
32196.439,,279.639,337.972,
32263.101,,279.655,337.786,
32329.760,,279.564,338.005,
32396.416,,279.729,338.007,
32463.077,,279.658,337.939,
32529.736,,279.565,337.667,
32596.392,,279.596,337.674,
32663.050,,279.431,337.788,
32729.711,,279.447,337.853,
32796.369,,279.352,337.700,
32863.026,,279.508,337.956,
32929.686,,279.610,337.891,
32996.344,,279.556,337.673,
33063.003,,279.432,337.854,
33129.662,,279.472,337.810,
33196.322,,279.425,337.674,
33262.975,,279.345,337.862,
33329.637,,279.649,337.769,
33396.293,,279.543,337.631,
33462.953,,279.489,337.506,
33529.611,,279.379,337.797,
33596.269,,279.406,337.800,
33662.928,,279.368,337.660,
33729.589,,279.399,337.553,
33796.248,,279.431,337.615,
33862.901,,279.449,337.677,
33929.563,,279.420,337.600,
33996.221,,279.349,337.585,
34062.876,,279.373,337.648,
34129.536,,279.232,337.457,
34196.192,,279.220,337.376,
34262.854,,279.247,337.650,
34329.513,,279.243,337.663,
34396.167,,279.412,337.525,
34462.826,,279.137,337.523,
34529.486,,279.238,337.806,
34596.145,,279.361,337.505,
34662.801,,279.338,337.645,
34729.459,,279.185,337.515,
34796.120,,279.376,337.512,
34862.780,,279.219,337.496,
34929.437,,279.215,337.549,
34996.099,,279.263,337.685,
35062.754,,279.285,337.498,
35129.411,,279.149,337.493,
35196.069,,279.119,337.404,
35262.726,,279.253,337.485,
35329.385,,279.100,337.456,
35396.048,,279.206,337.702,
35462.706,,279.126,337.464,
35529.365,,279.258,337.401,
35596.018,,279.162,337.425,
35662.678,,279.100,337.309,
35729.338,,279.213,337.579,
35795.996,,279.174,337.418,
35862.657,,279.221,337.489,
35929.315,,279.190,337.413,
35995.971,,278.955,337.470,
36062.628,,279.088,337.505,
36129.284,,279.034,337.151,
36195.948,,279.061,337.243,
36262.604,,278.963,337.259,
36329.263,,278.866,337.245,
36395.923,,278.974,337.459,
36462.575,,279.024,337.327,
36529.233,,279.040,337.314,
36595.893,,278.939,337.279,
36662.550,,278.839,337.377,
36729.210,,278.925,337.334,
36795.868,,278.902,337.363,
36862.526,,278.914,337.250,
36929.188,,278.959,337.254,
36995.846,,278.852,337.048,
37062.501,,278.930,337.440,
37129.160,,278.993,337.302,
37195.821,,278.811,337.205,
37262.478,,278.842,337.247,
37329.133,,278.779,337.159,
37395.796,,278.753,337.329,
37462.450,,278.951,337.132,
37529.111,,278.680,337.128,
37595.766,,278.748,337.133,
37662.427,,279.001,337.143,
37729.083,,278.917,337.107,
37795.740,,278.824,337.312,
37862.398,,278.844,337.230,
37929.062,,278.899,337.297,
37995.720,,278.883,337.386,
38062.375,,278.908,337.234,
38129.031,,278.725,337.273,
38195.693,,278.813,337.337,
38262.351,,278.960,337.523,
38329.008,,278.757,337.217,
38395.670,,278.794,337.345,
38462.324,,278.851,337.448,
38528.982,,278.725,337.230,
38595.639,,279.395,338.623,
38662.302,,280.202,338.844,
38728.960,,280.499,338.984,
38795.615,,280.574,338.814,
38862.274,,280.519,338.852,
38928.935,,280.566,339.059,
38995.591,,280.661,339.040,
39062.245,,280.647,339.032,
39128.904,,280.504,338.859,
39195.567,,280.456,339.001,
39262.225,,280.491,339.220,
39328.878,,280.765,339.098,
39395.539,,280.899,339.329,
39462.197,,281.096,339.265,
39528.856,,281.049,339.511,
39595.512,,281.293,339.774,
39662.174,,281.735,340.479,
39728.826,,282.344,340.995,
39795.485,,282.736,341.153,
39862.148,,282.787,341.396,
39928.803,,282.692,341.216,
39995.463,,282.806,341.418,
40062.121,,282.842,341.315,
40128.777,,282.905,341.250,
40195.440,,282.807,341.279,
40262.096,,282.873,341.102,
40328.756,,282.720,341.283,
40395.410,,282.750,341.199,
40462.071,,282.715,341.184,
40528.726,,282.725,341.241,
40595.384,,282.764,341.051,
40662.045,,282.797,341.232,
40728.707,,282.614,341.225,
40795.359,,282.666,341.200,
40862.019,,282.528,341.121,
40928.681,,282.640,340.985,
40995.336,,282.408,340.794,
41061.995,,282.151,340.474,
41128.652,,281.792,340.175,
41195.310,,281.552,340.046,
41261.968,,281.413,339.524,
41328.630,,280.989,339.505,
41395.287,,281.070,339.860,
41461.946,,281.637,340.079,
41528.604,,281.807,340.270,
41595.262,,281.745,340.363,
41661.919,,281.902,340.413,
41728.577,,282.014,340.330,
41795.235,,281.979,340.344,
41861.899,,281.966,340.391,
41928.552,,281.835,340.310,
41995.214,,281.750,340.593,
42061.872,,282.006,340.476,
42128.525,,282.008,340.401,
42195.184,,281.901,340.253,
42261.845,,281.976,340.253,
42328.507,,281.794,340.193,
42395.160,,281.673,340.139,
42461.818,,281.824,340.253,
42528.480,,281.603,340.086,
42595.136,,281.705,340.238,
42661.793,,281.482,339.975,
42728.451,,281.626,340.024,
42795.110,,281.574,340.167,
42861.773,,281.761,340.176,
42928.426,,281.679,340.293,
42995.088,,281.889,340.454,
43061.742,,281.896,340.377,
43128.405,,281.776,340.370,
43195.065,,281.723,340.595,
43261.721,,282.155,340.622,
43328.378,,281.963,340.632,
43395.033,,282.103,340.635,
43461.695,,282.137,340.481,
43528.355,,282.056,340.552,
43595.013,,281.984,340.591,
43661.666,,281.944,340.672,
43728.324,,281.916,340.403,
43794.982,,281.940,340.655,
43861.646,,281.951,340.385,
43928.303,,281.844,340.628,
43994.961,,282.150,340.575,
44061.621,,282.114,340.548,
44128.278,,282.163,340.695,
44194.933,,282.151,340.594,
44261.592,,282.048,340.639,
44328.251,,282.192,340.550,
44394.909,,282.157,340.555,
44461.567,,282.049,340.614,
44528.224,,282.114,340.696,
44594.885,,282.081,340.707,
44661.545,,282.066,340.397,
44728.199,,282.098,340.630,
44794.861,,281.893,340.351,
44861.514,,281.972,340.351,
44928.176,,281.789,340.345,
44994.831,,281.790,340.385,
45061.488,,281.889,340.412,
45128.150,,281.700,340.294,
45194.809,,281.849,340.441,
45261.463,,281.708,340.353,
45328.122,,281.788,340.361,
45394.781,,281.810,340.193,
45461.440,,281.855,340.228,
45528.096,,281.558,340.154,
45594.757,,281.715,340.425,
45661.416,,281.578,340.122,
45728.073,,281.742,340.377,
45794.729,,281.722,340.466,
45861.393,,281.680,340.304,
45928.048,,281.744,340.195,
45994.703,,281.553,340.384,
46061.367,,281.626,340.472,
46128.019,,281.793,340.255,
46194.682,,281.753,340.196,
46261.338,,281.534,340.262,
46327.994,,281.723,340.281,
46394.655,,281.680,340.386,
46461.313,,281.610,340.213,
46527.974,,281.498,340.251,
46594.628,,281.721,340.321,
46661.286,,281.688,340.246,
46727.948,,281.437,340.169,
46794.601,,281.619,340.346,
46861.261,,281.772,340.159,
46927.917,,281.622,340.246,
46994.577,,281.617,340.307,
47061.236,,281.423,340.157,
47127.893,,281.537,340.322,
47194.555,,281.538,340.184,
47261.209,,281.557,340.155,
47327.872,,281.418,340.057,
47394.528,,281.617,340.253,
47461.182,,281.633,340.177,
47527.842,,281.313,340.147,
47594.501,,281.393,340.048,
47661.160,,281.487,339.904,
47727.814,,281.422,339.979,
47794.472,,281.259,339.733,
47861.136,,280.824,339.467,
47927.790,,280.461,338.892,
47994.450,,280.192,338.536,
48061.106,,279.571,338.104,
48127.762,,279.085,337.555,
48194.421,,278.693,336.919,
48261.076,,278.161,336.724,
48327.733,,277.554,336.009,
48394.387,,277.261,335.753,
48461.044,,276.796,335.284,
48527.707,,276.332,334.915,
48594.361,,275.911,334.359,
48661.020,,275.551,333.882,
48727.672,,275.144,333.671,
48794.328,,274.440,333.149,
48860.987,,274.152,332.660,
48927.644,,273.864,332.297,
48994.305,,273.666,331.994,
49060.960,,273.038,331.692,
49127.616,,272.724,331.376,
49194.274,,272.653,331.235,
49260.928,,272.429,331.292,
49327.586,,272.315,330.833,
49394.244,,272.144,330.817,
49460.898,,272.214,330.892,
49527.556,,272.165,330.850,
49594.212,,272.162,330.707,
49660.868,,272.177,330.715,
49727.525,,272.172,330.725,
49794.184,,272.038,330.790,
49860.822,,272.180,330.885,
49927.497,,272.064,330.842,
49994.158,,272.140,330.879,
50060.809,,271.941,330.967,
50127.470,,272.054,330.932,
50194.124,,272.086,330.754,
50260.779,,272.055,330.783,
50327.441,,271.976,330.879,
50394.093,,271.926,330.774,
50460.752,,271.968,330.766,
50527.406,,271.889,330.813,
50594.065,,272.053,330.748,
50660.721,,271.946,330.986,
50727.379,,272.019,330.912,
50794.035,,272.108,330.722,
50860.697,,271.922,330.847,
50927.349,,271.994,330.838,
50994.005,,271.842,330.804,
51060.664,,271.930,330.828,
51127.319,,272.040,330.744,
51193.975,,271.962,330.562,
51260.634,,271.860,330.825,
51327.290,,271.935,330.689,
51393.948,,271.963,330.622,
51460.600,,271.839,330.775,
51527.263,,271.827,330.881,
51593.916,,272.064,331.003,
51660.574,,271.849,330.641,
51727.232,,271.830,330.660,
51793.888,,271.913,330.840,
51860.542,,271.860,330.659,
51927.201,,271.837,330.794,
51993.858,,271.884,330.741,
52060.516,,271.917,330.790,
52127.172,,271.868,330.711,
52193.825,,271.945,330.734,
52260.486,,271.829,330.675,
52327.140,,271.771,330.633,
52393.795,,272.027,330.662,
52460.453,,271.802,330.566,
52527.107,,271.860,330.724,
52593.765,,271.794,330.765,
52660.424,,271.836,330.649,
52727.083,,271.860,330.671,
52793.735,,271.865,330.757,
52860.394,,271.752,330.653,
52927.048,,271.662,330.772,
52993.705,,271.717,330.740,
53060.365,,271.852,330.656,
53127.020,,271.814,330.630,
53193.675,,271.759,330.659,
53260.336,,271.864,330.626,
53326.986,,271.929,330.574,
53393.643,,271.804,330.527,
53460.300,,271.759,330.787,
53526.958,,271.840,330.587,
53593.618,,271.584,330.397,
53660.269,,271.765,330.638,
53726.931,,271.835,330.423,
53793.583,,271.693,330.718,
53860.241,,271.776,330.641,
53926.899,,271.752,330.552,
53993.556,,271.716,330.597,
54060.211,,271.827,330.666,
54126.869,,271.748,330.599,
54193.523,,271.707,330.605,
54260.180,,271.648,330.712,
54326.836,,271.709,330.423,
54393.491,,271.601,330.494,
54460.151,,271.785,330.651,
54526.807,,271.735,330.359,
54593.463,,271.725,330.463,
54660.119,,271.641,330.671,
54726.772,,271.543,330.670,
54793.433,,271.608,330.376,
54860.085,,271.469,330.482,
54926.742,,271.575,330.418,
54993.398,,271.611,330.408,
55060.055,,271.502,330.401,
55126.712,,271.645,330.366,
55193.369,,271.517,330.451,
55260.023,,271.564,330.563,
55326.684,,271.637,330.655,
55393.341,,271.544,330.401,
55459.998,,271.542,330.428,
55526.650,,271.555,330.577,
55593.307,,271.429,330.510,
55659.966,,271.497,330.544,
55726.619,,271.450,330.426,
55793.279,,271.621,330.527,
55859.933,,271.524,330.525,
55926.591,,271.428,330.370,
55993.245,,271.524,330.418,
56059.906,,271.462,330.318,
56126.562,,271.412,330.415,
56193.222,,271.538,330.452,
56259.876,,271.405,330.273,
56326.533,,271.513,330.502,
56393.192,,271.429,330.271,
56459.854,,271.356,330.342,
56526.510,,271.435,330.359,
56593.170,,271.493,330.325,
56659.825,,271.392,330.323,
56726.486,,271.414,330.257,
56793.143,,271.366,330.200,
56859.800,,271.420,330.427,
56926.457,,271.326,330.279,
56993.115,,271.440,330.280,
57059.773,,271.405,330.200,
57126.433,,271.268,330.251,
57193.087,,271.296,330.256,
57259.743,,271.469,330.365,
57326.404,,271.338,330.283,
57393.061,,271.355,330.275,
57459.722,,271.370,330.028,
57526.379,,271.326,330.257,
57593.037,,271.346,330.304,
57659.692,,271.239,330.048,
57726.349,,271.244,330.391,
57793.011,,271.256,330.274,
57859.663,,271.320,330.256,
57926.326,,271.326,330.098,
57992.985,,271.343,330.440,
58059.638,,271.165,329.970,
58126.294,,271.311,330.231,
58192.958,,271.176,330.110,
58259.613,,271.176,330.207,
58326.274,,271.276,330.107,
58392.928,,271.245,330.194,
58459.588,,271.108,330.060,
58526.244,,271.340,330.198,
58592.902,,271.319,330.174,
58659.556,,271.304,330.061,
58726.214,,271.289,330.198,
58792.878,,271.279,330.078,
58859.531,,271.218,330.156,
58926.192,,271.244,330.131,
58992.851,,271.086,330.018,
59059.503,,271.095,329.994,
59126.164,,271.203,330.098,
59192.823,,271.019,330.045,
59259.477,,271.173,329.973,
59326.134,,271.242,330.108,
59392.793,,271.086,330.156,
59459.451,,270.909,330.030,
59526.110,,270.923,329.937,
59592.766,,271.120,329.983,
59659.423,,271.074,330.010,
59726.082,,271.084,330.147,
59792.744,,271.069,330.088,
59859.396,,271.212,330.127,
59926.058,,271.060,329.974,
59992.717,,271.036,329.866,
60059.369,,270.910,330.089,
60126.028,,270.885,330.061,
60192.685,,270.996,329.877,
60259.346,,271.039,329.918,
60326.000,,270.954,330.093,
60392.660,,271.040,329.842,
60459.321,,271.125,329.822,
60525.976,,271.155,329.994,
60592.633,,271.015,329.930,
60659.289,,271.051,330.044,
60725.948,,270.882,329.971,
60792.610,,271.056,329.925,
60859.261,,271.069,329.968,
60925.925,,271.034,329.859,
60992.581,,271.036,330.043,
61059.239,,271.023,329.875,
61125.895,,270.940,329.933,
61192.551,,270.913,329.778,
61259.209,,270.895,329.921,
61325.868,,270.934,329.782,
61392.523,,270.897,329.893,
61459.186,,270.824,329.956,
61525.840,,270.840,329.844,
61592.501,,270.758,329.710,
61659.159,,270.895,329.756,
61725.815,,270.972,329.617,
61792.474,,270.777,329.777,
61859.128,,270.829,329.774,
61925.784,,270.748,329.644,
61992.446,,270.974,329.933,
62059.104,,270.896,329.743,
62125.762,,270.976,329.717,
62192.419,,270.812,329.618,
62259.073,,270.788,329.499,
62325.734,,270.842,329.720,
62392.393,,270.768,329.967,
62459.046,,270.785,329.618,
62525.709,,270.925,329.540,
62592.365,,270.712,329.754,
62659.024,,270.800,329.736,
62725.677,,270.680,329.620,
62792.334,,270.800,329.590,
62858.996,,270.770,329.691,
62925.654,,270.618,329.709,
62992.309,,270.812,329.517,
63058.969,,270.754,329.617,
63125.628,,270.683,329.771,
63192.279,,270.843,329.730,
63258.942,,270.776,329.531,
63325.600,,270.830,329.689,
63392.256,,270.607,329.629,
63458.914,,270.709,329.660,
63525.571,,270.568,329.632,
63592.229,,270.593,329.654,
63658.883,,270.634,329.828,
63725.545,,270.688,329.656,
63792.204,,270.718,329.653,
63858.857,,270.610,329.471,
63925.517,,270.700,329.687,
63992.176,,270.623,329.569,
64058.834,,270.550,329.564,
64125.494,,270.560,329.730,
64192.149,,270.754,329.516,
64258.807,,270.692,329.723,
64325.462,,270.640,329.350,
64392.122,,270.658,329.531,
64458.778,,270.690,329.491,
64525.436,,270.563,329.567,
64592.100,,270.493,329.408,
64658.752,,270.678,329.678,
64725.413,,270.776,329.497,
64792.069,,270.635,329.683,
64858.726,,270.567,329.401,
64925.384,,270.790,329.640,
64992.043,,270.556,329.506,
65058.705,,270.471,329.403,
65125.362,,270.536,329.338,
65192.019,,270.529,329.395,
65258.678,,270.396,329.579,
65325.338,,270.670,329.504,
65391.992,,270.483,329.424,
65458.648,,270.643,329.344,
65525.310,,270.532,329.503,
65591.966,,270.477,329.639,
65658.623,,270.631,329.420,
65725.285,,270.387,329.502,
65791.944,,270.467,329.399,
65858.600,,270.451,329.411,
65925.255,,270.605,329.450,
65991.919,,270.314,329.374,
66058.575,,270.543,329.481,
66125.233,,270.350,329.348,
66191.886,,270.426,329.399,
66258.550,,270.447,329.329,
66325.208,,270.323,329.603,
66391.865,,270.324,329.488,
66458.522,,270.395,329.429,
66525.181,,270.568,329.424,
66591.839,,270.597,329.260,
66658.498,,270.477,329.514,
66725.155,,270.477,329.257,
66791.811,,270.494,329.376,
66858.469,,270.417,329.506,
66925.131,,270.379,329.452,
66991.786,,270.448,329.159,
67058.442,,270.366,329.406,
67125.102,,270.174,329.398,
67191.758,,270.281,329.343,
67258.415,,270.235,329.247,
67325.073,,270.464,329.518,
67391.737,,270.232,329.197,
67458.394,,270.266,329.369,
67525.050,,270.375,329.198,
67591.705,,270.343,329.330,
67658.364,,270.395,329.305,
67725.023,,270.346,329.345,
67791.685,,270.411,329.399,
67858.339,,270.214,329.350,
67925.000,,270.509,329.350,
67991.654,,270.374,329.395,
68058.317,,270.368,329.334,
68124.972,,270.331,329.262,
68191.633,,270.188,329.316,
68258.285,,270.289,329.306,
68324.949,,270.141,329.213,
68391.603,,270.319,329.298,
68458.262,,270.129,329.325,
68524.920,,270.220,329.252,
68591.580,,270.149,329.443,
68658.239,,270.392,329.288,
68724.893,,270.351,329.285,
68791.552,,270.280,329.331,
68858.213,,270.259,329.381,
68924.870,,270.181,329.322,
68991.527,,270.196,329.209,
69058.186,,270.192,329.124,
69124.845,,270.228,329.277,
69191.497,,270.235,329.211,
69258.157,,270.193,329.247,
69324.818,,270.159,329.208,
69391.476,,270.262,329.226,
69458.129,,270.260,329.256,
69524.792,,270.150,329.082,
69591.447,,270.199,329.180,
69658.108,,270.207,329.302,
69724.760,,270.297,329.191,
69791.421,,270.233,329.245,
69858.082,,270.042,329.270,
69924.741,,270.241,329.191,
69991.397,,270.177,329.300,
70058.055,,270.260,329.041,
70124.711,,270.289,329.163,
70191.370,,270.273,329.218,
70258.030,,270.095,329.274,
70324.687,,270.304,329.247,
70391.341,,270.054,329.032,
70458.000,,270.168,329.096,
70524.658,,270.064,329.205,
70591.314,,270.192,329.186,
70657.978,,270.009,329.010,
70724.636,,269.915,328.985,
70791.291,,270.094,329.111,
70857.948,,269.916,329.185,
70924.605,,270.057,329.037,
70991.263,,270.089,329.140,
71057.922,,270.122,329.080,
71124.584,,270.099,329.058,
71191.237,,270.066,329.156,
71257.897,,270.083,328.874,
71324.553,,270.048,328.963,
71391.212,,269.828,328.891,
71457.872,,270.072,328.964,
71524.530,,269.983,329.117,
71591.190,,270.127,329.079,
71657.847,,269.902,329.034,
71724.505,,270.032,329.073,
71791.160,,269.975,328.895,
71857.820,,269.920,329.006,
71924.474,,270.021,328.940,
71991.134,,269.858,328.895,
72057.791,,269.987,329.017,
72124.453,,269.686,328.940,
72191.110,,269.895,329.078,
72257.767,,269.816,328.931,
72324.425,,269.900,328.788,
72391.080,,269.932,328.938,
72457.741,,269.991,328.996,
72524.398,,269.869,328.971,
72591.058,,269.813,328.910,
72657.714,,269.837,328.958,
72724.370,,269.931,328.811,
72791.031,,269.938,328.970,
72857.686,,270.058,328.935,
72924.343,,269.899,328.692,
72991.000,,269.796,328.749,
73057.660,,269.763,328.820,
73124.315,,269.801,328.955,
73190.976,,270.046,328.709,
73257.631,,269.826,328.844,
73324.290,,269.874,328.812,
73390.950,,269.819,328.778,
73457.608,,269.780,328.786,
73524.265,,269.744,328.853,
73590.921,,269.883,328.729,
73657.581,,269.801,328.845,
73724.240,,269.769,328.777,
73790.896,,269.850,328.972,
73857.554,,269.786,328.792,
73924.215,,269.687,328.792,
73990.873,,269.830,328.807,
74057.529,,269.916,328.798,
74124.187,,269.967,328.692,
74190.842,,269.842,328.690,
74257.504,,269.684,328.933,
74324.160,,269.680,328.615,
74390.817,,269.680,328.741,
74457.476,,269.744,328.919,
74524.136,,269.689,329.012,
74590.791,,269.712,328.711,
74657.447,,269.608,328.612,
74724.106,,269.779,328.693,
74790.768,,269.570,328.606,
74857.423,,269.639,328.706,
74924.079,,269.727,328.716,
74990.737,,269.745,328.606,
75057.397,,269.689,328.508,
75124.057,,269.786,328.669,
75190.711,,269.870,328.967,
75257.372,,269.663,328.672,
75324.028,,269.647,328.680,
75390.682,,269.570,328.716,
75457.346,,269.739,328.771,
75524.003,,269.616,328.602,
75590.660,,269.683,328.564,
75657.318,,269.650,328.752,
75723.975,,269.649,328.670,
75790.631,,269.446,328.667,
75857.290,,269.669,328.551,
75923.948,,269.539,328.867,
75990.606,,269.785,328.665,
76057.262,,269.678,328.709,
76123.920,,269.572,328.616,
76190.580,,269.541,328.835,
76257.241,,269.639,328.703,
76323.898,,269.506,328.533,
76390.553,,269.652,328.603,
76457.209,,269.664,328.641,
76523.866,,269.643,328.680,
76590.530,,269.679,328.583,
76657.188,,269.478,328.610,
76723.844,,269.603,328.770,
76790.503,,269.552,328.605,
76857.156,,269.556,328.578,
76923.814,,269.513,328.741,
76990.471,,269.372,328.549,
77057.130,,269.572,328.557,
77123.788,,269.654,328.498,
77190.445,,269.482,328.613,
77257.104,,269.536,328.468,
77323.763,,269.480,328.539,
77390.422,,269.394,328.709,
77457.078,,269.641,328.651,
77523.737,,269.668,328.762,
77590.395,,269.607,328.457,
77657.052,,269.515,328.527,
77723.709,,269.559,328.575,
77790.367,,269.546,328.354,
77857.028,,269.348,328.439,
77923.682,,269.397,328.580,
77990.342,,269.362,328.783,
78056.996,,269.465,328.483,
78123.657,,269.372,328.385,
78190.318,,269.453,328.534,
78256.969,,269.415,328.431,
78323.628,,269.347,328.470,
78390.288,,269.477,328.568,
78456.945,,269.455,328.559,
78523.605,,269.506,328.445,
78590.263,,269.569,328.458,
78656.921,,269.379,328.516,
78723.579,,269.344,328.541,
78790.236,,269.373,328.475,
78856.895,,269.293,328.389,
78923.549,,269.471,328.513,
78990.205,,269.374,328.472,
79056.869,,269.395,328.442,
79123.521,,269.518,328.498,
79190.179,,269.539,328.495,
79256.841,,269.356,328.345,
79323.495,,269.447,328.363,
79390.156,,269.311,328.270,
79456.811,,269.393,328.341,
79523.468,,269.309,328.220,
79590.131,,269.440,328.442,
79656.789,,269.457,328.482,
79723.441,,269.225,328.389,
79790.100,,269.397,328.468,
79856.756,,269.339,328.376,
79923.418,,269.520,328.338,
79990.075,,269.408,328.549,
80056.736,,269.200,328.390,
80123.394,,269.459,328.388,
80190.047,,269.219,328.422,
80256.705,,269.347,328.297,
80323.362,,269.347,328.325,
80390.020,,269.333,328.444,
80456.684,,269.374,328.399,
80523.339,,269.353,328.339,
80589.998,,269.311,328.229,
80656.658,,269.188,328.303,
80723.316,,269.121,328.436,
80789.969,,269.263,328.273,
80856.628,,269.332,328.475,
80923.286,,269.253,328.379,
80989.948,,269.280,328.400,
81056.603,,269.294,328.543,
81123.260,,269.157,328.228,
81189.916,,269.238,328.353,
81256.575,,269.284,328.316,
81323.236,,269.237,328.367,
81389.894,,269.145,328.305,
81456.551,,269.068,328.168,
81523.210,,269.159,328.288,
81589.871,,269.133,328.280,
81656.526,,269.075,328.270,
81723.180,,269.215,328.119,
81789.840,,269.134,328.325,
81856.500,,269.287,328.368,
81923.159,,269.243,328.244,
81989.818,,269.357,328.317,
82056.473,,269.217,328.172,
82123.131,,269.163,328.356,
82189.793,,269.194,328.386,
82256.450,,269.279,328.338,
82323.103,,269.147,328.229,
82389.762,,269.114,328.217,
82456.420,,269.220,328.110,
82523.077,,269.230,328.244,
82589.738,,269.297,328.122,
82656.393,,269.177,328.366,
82723.056,,269.119,328.115,
82789.713,,269.181,328.188,
82856.367,,269.092,328.198,
82923.029,,269.031,328.321,
82989.683,,269.224,328.060,
83056.343,,269.155,328.151,
83123.002,,269.063,328.299,
83189.656,,269.125,328.102,
83256.319,,269.148,328.173,
83322.979,,269.119,328.305,
83389.632,,269.032,328.000,
83456.293,,269.146,328.278,
83522.953,,269.044,328.095,
83589.608,,268.951,328.134,
83656.264,,268.978,328.256,
83722.922,,268.989,328.495,
83789.578,,269.042,327.917,
83856.238,,269.150,328.324,
83922.901,,269.121,328.124,
83989.554,,268.989,328.031,
84056.217,,269.023,328.086,
84122.871,,269.087,328.147,
84189.531,,268.987,328.375,
84256.188,,268.870,328.332,
84322.846,,269.244,328.148,
84389.502,,269.093,328.115,
84456.162,,269.050,328.120,
84522.819,,268.928,328.140,
84589.479,,268.907,328.049,
84656.138,,268.978,328.194,
84722.794,,268.873,328.106,
84789.452,,269.064,328.202,
84856.112,,268.912,328.183,
84922.769,,268.965,328.069,
84989.427,,268.938,328.172,
85056.083,,268.993,328.160,
85122.740,,268.995,328.045,
85189.402,,268.967,328.063,
85256.055,,269.005,328.072,
85322.719,,269.111,327.972,
85389.371,,268.961,328.121,
85456.031,,269.037,328.196,
85522.689,,269.040,328.082,
85589.349,,268.939,328.152,
85656.007,,268.813,328.090,
85722.663,,269.059,328.056,
85789.319,,268.818,328.197,
85855.981,,268.882,328.022,
85922.640,,268.763,328.160,
85989.296,,268.950,328.127,
86055.956,,268.862,328.151,
86122.610,,268.830,328.042,
86189.273,,268.921,327.977,
86255.917,,268.720,327.808,
86322.582,,268.900,327.928,
86389.244,,268.855,328.035,
86455.899,,268.871,327.961,
86522.556,,268.962,328.055,
86589.218,,268.965,327.783,
86655.872,,268.932,327.963,
86722.534,,268.890,327.864,
86789.193,,268.745,327.994,
86855.847,,268.712,328.068,
86922.504,,268.782,327.913,
86989.165,,268.843,327.988,
87055.824,,268.959,328.014,
87122.483,,268.866,328.111,
87189.136,,268.660,328.073,
87255.796,,268.772,328.021,
87322.452,,268.639,327.945,
87389.114,,268.787,327.931,
87455.769,,269.005,327.987,
87522.431,,268.717,327.985,
87589.084,,268.813,327.844,
87655.742,,268.648,327.988,
87722.403,,268.729,328.035,
87789.061,,268.719,328.072,
87855.720,,268.766,327.914,
87922.376,,268.655,327.870,
87989.034,,268.752,328.040,
88055.693,,268.570,327.981,
88122.355,,268.802,327.910,
88189.014,,268.653,327.929,
88255.672,,268.625,327.918,
88322.330,,268.762,327.951,
88388.986,,268.695,327.843,
88455.648,,268.873,327.956,
88522.306,,268.788,328.044,
88588.961,,268.733,327.881,
88655.622,,268.797,328.016,
88722.283,,268.723,328.033,
88788.937,,268.728,327.985,
88855.598,,268.781,327.974,
88922.256,,268.800,327.922,
88988.916,,268.615,328.063,
89055.572,,268.694,327.865,
89122.232,,268.808,327.692,
89188.895,,268.741,327.939,
89255.552,,268.541,327.784,
89322.211,,268.734,327.751,
89388.868,,268.621,327.824,
89455.527,,268.684,327.811,
89522.186,,268.609,327.939,
89588.842,,268.669,327.974,
89655.501,,268.622,327.929,
89722.163,,268.817,328.054,
89788.819,,268.655,327.823,
89855.481,,268.758,327.823,
89922.135,,268.608,327.697,
89988.798,,268.630,327.801,
90055.452,,268.671,327.690,
90122.116,,268.588,327.876,
90188.776,,268.684,327.805,
90255.430,,268.683,327.938,
90322.093,,268.723,327.824,
90388.746,,268.596,327.794,
90455.405,,268.539,327.802,
90522.068,,268.569,327.789,
90588.728,,268.592,327.825,
90655.382,,268.511,327.815,
90722.046,,268.741,327.748,
90788.703,,268.660,327.773,
90855.363,,268.687,327.788,
90922.021,,268.566,327.766,
90988.678,,268.482,327.737,
91055.335,,268.773,327.944,
91121.997,,268.617,327.794,
91188.650,,268.590,327.976,
91255.313,,268.522,327.863,
91321.974,,268.575,327.761,
91388.630,,268.435,327.862,
91455.291,,268.536,327.813,
91521.946,,268.745,327.786,
91588.604,,268.507,327.807,
91655.264,,268.463,327.667,
91721.921,,268.607,327.812,
91788.583,,268.580,327.971,
91855.239,,268.509,327.763,
91921.897,,268.446,327.651,
91988.557,,268.664,328.068,
92055.215,,268.480,327.768,
92121.874,,268.535,327.868,
92188.532,,268.558,327.868,
92255.190,,268.449,327.713,
92321.850,,268.690,327.864,
92388.511,,268.555,327.764,
92455.172,,268.516,327.699,
92521.827,,268.573,327.613,
92588.486,,268.554,327.661,
92655.143,,268.475,327.599,
92721.802,,268.570,327.766,
92788.466,,268.343,327.749,
92855.119,,268.468,327.818,
92921.782,,268.480,327.703,
92988.442,,268.516,327.608,
93055.102,,268.517,327.726,
93121.755,,268.497,327.738,
93188.414,,268.412,327.795,
93255.074,,268.455,327.828,
93321.733,,268.453,327.731,
93388.395,,268.415,327.668,
93455.050,,268.290,327.665,
93521.712,,268.606,327.754,
93588.370,,268.309,327.797,
93655.026,,268.441,327.700,
93721.684,,268.296,327.703,
93788.345,,268.556,327.813,
93855.005,,268.340,327.604,
93921.660,,268.309,327.616,
93988.324,,268.445,327.698,
94054.977,,268.441,327.760,
94121.641,,268.450,327.549,
94188.295,,268.319,327.633,
94254.959,,268.563,327.418,
94321.617,,268.398,327.596,
94388.272,,268.308,327.722,
94454.935,,268.593,327.453,
94521.591,,268.252,327.638,
94588.248,,268.383,327.655,
94654.909,,268.363,327.419,
94721.566,,268.292,327.510,
94788.224,,268.409,327.700,
94854.888,,268.526,327.551,
94921.541,,268.374,327.553,
94988.200,,268.286,327.597,
95054.863,,268.445,327.707,
95121.520,,268.310,327.617,
95188.178,,268.356,327.558,
95254.839,,268.311,327.527,
95321.494,,268.376,327.680,
95388.155,,268.222,327.515,
95454.812,,268.297,327.429,
95521.475,,268.388,327.546,
95588.134,,268.402,327.509,
95654.793,,268.270,327.632,
95721.449,,268.118,327.507,
95788.105,,268.356,327.470,
95854.768,,268.244,327.486,
95921.427,,268.356,327.535,
95988.081,,268.450,327.456,
96054.738,,268.264,327.527,
96121.401,,268.325,327.687,
96188.058,,268.375,327.466,
96254.716,,268.113,327.485,
96321.371,,268.379,327.414,
96388.032,,268.300,327.364,
96454.692,,268.287,327.379,
96521.344,,268.254,327.437,
96588.005,,268.356,327.470,
96654.663,,268.329,327.233,
96721.320,,268.306,327.438,
96787.982,,268.276,327.289,
96854.635,,268.149,327.403,
96921.292,,268.232,327.292,
96987.954,,268.392,327.442,
97054.613,,268.150,327.634,
97121.268,,268.186,327.558,
97187.929,,268.160,327.441,
97254.588,,268.256,327.484,
97321.241,,268.180,327.344,
97387.898,,268.136,327.369,
97454.559,,268.176,327.383,
97521.215,,268.156,327.475,
97587.877,,268.252,327.483,
97654.535,,268.222,327.466,
97721.193,,268.178,327.476,
97787.852,,268.154,327.308,
97854.505,,268.332,327.231,
97921.167,,268.023,327.241,
97987.821,,268.238,327.450,
98054.482,,268.136,327.176,
98121.138,,268.147,327.190,
98187.797,,268.173,327.368,
98254.456,,268.055,327.317,
98321.109,,268.264,327.468,
98387.771,,268.164,327.268,
98454.428,,268.136,327.376,
98521.089,,268.216,327.339,
98587.743,,268.201,327.394,
98654.403,,268.406,327.225,
98721.061,,268.103,327.382,
98787.718,,268.131,327.418,
98854.375,,268.037,327.274,
98921.037,,268.235,327.202,
98987.692,,268.323,327.367,
99054.347,,268.064,327.373,
99121.009,,268.021,327.332,
99187.664,,268.088,327.282,
99254.326,,268.058,327.312,
99320.979,,268.181,327.406,
99387.642,,268.081,327.330,
99454.296,,268.119,327.222,
99520.955,,268.005,327.177,
99587.611,,268.037,327.264,
99654.268,,268.153,327.185,
99720.930,,268.029,327.102,
99787.585,,267.975,327.334,
99854.249,,267.972,327.103,
99920.906,,267.905,327.186,
99987.564,,268.052,327.199,
100054.219,,267.965,327.198,
100120.880,,268.009,327.259,
100187.535,,268.017,327.363,
100254.194,,267.862,327.295,
100320.855,,267.846,327.084,
100387.511,,267.992,327.187,
100454.168,,267.900,327.161,
100520.827,,267.888,327.451,
100587.481,,268.001,327.219,
100654.144,,268.010,327.225,
100720.799,,267.869,327.123,
100787.455,,268.088,327.257,
100854.115,,267.953,327.090,
100920.776,,267.804,327.108,
100987.427,,267.956,327.267,
101054.091,,268.071,327.214,
101120.746,,267.928,326.994,
101187.402,,267.803,327.019,
101254.064,,267.998,327.202,
101320.722,,267.737,327.148,
101387.379,,267.754,327.207,
101454.035,,267.968,327.102,
101520.692,,268.000,327.164,
101587.349,,267.805,327.142,
101654.012,,267.921,327.199,
101720.668,,267.963,327.231,
101787.326,,267.950,327.197,
101853.982,,267.839,327.027,
101920.642,,267.882,327.048,
101987.303,,267.733,326.847,
102053.956,,267.827,326.980,
102120.615,,267.875,327.128,
102187.277,,267.653,327.174,
102253.931,,267.747,327.168,
102320.593,,267.827,327.114,
102387.249,,267.815,327.062,
102453.909,,267.792,327.039,
102520.564,,267.904,327.235,
102587.224,,267.659,327.240,
102653.881,,267.804,327.083,
102720.538,,267.843,327.134,
102787.194,,267.824,327.097,
102853.851,,267.851,327.078,
102920.512,,267.842,327.152,
102987.168,,267.896,326.998,
103053.830,,267.839,327.054,
103120.488,,267.884,327.119,
103187.142,,267.733,327.074,
103253.801,,267.576,326.944,
103320.457,,267.792,326.825,
103387.119,,267.795,326.843,
103453.777,,267.712,326.952,
103520.432,,267.738,326.954,
103587.092,,267.772,326.966,
103653.749,,267.674,327.057,
103720.410,,267.744,326.998,
103787.065,,267.644,327.021,
103853.721,,267.754,326.999,
103920.377,,267.799,326.872,
103987.040,,267.785,327.059,
104053.696,,267.706,327.018,
104120.353,,267.725,326.909,
104187.010,,267.578,326.977,
104253.665,,267.810,326.842,
104320.324,,267.907,326.931,
104386.981,,267.667,326.938,
104453.642,,267.693,327.049,
104520.299,,267.645,327.009,
104586.959,,267.649,326.960,
104653.615,,267.617,326.942,
104720.270,,267.709,326.922,
104786.932,,267.733,326.925,
104853.587,,267.701,326.973,
104920.242,,267.492,327.032,
104986.901,,267.849,326.859,
105053.560,,267.829,326.956,
105120.217,,267.579,326.889,
105186.873,,267.582,326.985,
105253.533,,267.624,326.984,
105320.188,,267.709,326.943,
105386.850,,267.680,327.050,
105453.505,,267.687,326.861,
105520.162,,267.568,326.756,
105586.819,,267.716,326.818,
105653.475,,267.564,327.076,
105720.133,,267.588,326.965,
105786.795,,267.624,326.902,
105853.451,,267.500,327.042,
105920.106,,267.530,326.824,
105986.764,,267.721,327.018,
106053.422,,267.508,326.968,
106120.081,,267.730,326.872,
106186.734,,267.629,326.958,
106253.395,,267.628,326.799,
106320.052,,267.595,326.890,
106386.713,,267.542,326.809,
106453.371,,267.555,326.792,
106520.024,,267.520,326.961,
106586.685,,267.545,326.804,
106653.338,,267.463,326.728,
106719.995,,267.483,326.916,
106786.658,,267.553,326.877,
106853.315,,267.582,326.817,
106919.970,,267.561,326.851,
106986.628,,267.678,326.809,
107053.288,,267.579,326.735,
107119.944,,267.493,326.744,
107186.604,,267.485,326.747,
107253.256,,267.535,326.973,
107319.914,,267.509,326.770,
107386.574,,267.648,326.934,
107453.232,,267.581,326.809,
107519.889,,267.614,326.817,
107586.545,,267.741,326.625,
107653.201,,267.433,326.812,
107719.860,,267.413,326.697,
107786.518,,267.636,326.585,
107853.178,,267.578,326.700,
107919.835,,267.513,326.627,
107986.489,,267.500,326.995,
108053.150,,267.479,326.656,
108119.806,,267.459,326.681,
108186.461,,267.456,326.642,
108253.124,,267.389,326.670,
108319.776,,267.401,326.722,
108386.437,,267.491,326.607,
108453.097,,267.525,326.648,
108519.754,,267.571,326.705,
108586.407,,267.435,326.692,
108653.069,,267.450,326.652,
108719.727,,267.370,326.594,
108786.385,,267.290,326.477,
108853.042,,267.494,326.786,
108919.701,,267.422,326.565,
108986.358,,267.333,326.773,
109053.009,,267.440,326.740,
109119.673,,267.436,326.602,
109186.330,,267.305,326.644,
109252.986,,267.390,326.678,
109319.646,,267.470,326.798,
109386.301,,267.412,326.678,
109452.956,,267.362,326.581,
109519.616,,267.339,326.503,
109586.269,,267.358,326.619,
109652.928,,267.406,326.646,
109719.587,,267.260,326.556,
109786.246,,267.207,326.680,
109852.906,,267.288,326.727,
109919.558,,267.417,326.788,
109986.220,,267.475,326.565,
110052.875,,267.478,326.597,
110119.534,,267.250,326.500,
110186.190,,267.307,326.672,
110252.850,,267.445,326.575,
110319.509,,267.357,326.636,
110386.165,,267.256,326.686,
110452.821,,267.333,326.502,
110519.480,,267.394,326.549,
110586.138,,267.453,326.559,
110652.789,,267.227,326.566,
110719.453,,267.167,326.640,
110786.111,,267.283,326.524,
110852.766,,267.263,326.531,
110919.423,,267.191,326.592,
110986.082,,267.427,326.570,
111052.737,,267.234,326.633,
111119.399,,267.278,326.573,
111186.050,,267.239,326.576,
111252.709,,267.262,326.445,
111319.365,,267.348,326.601,
111386.025,,267.416,326.478,
111452.681,,267.183,326.641,
111519.343,,267.316,326.416,
111585.997,,267.309,326.613,
111652.656,,267.248,326.417,
111719.311,,267.220,326.552,
111785.969,,267.322,326.471,
111852.629,,267.226,326.294,
111919.287,,267.235,326.363,
111985.944,,267.263,326.399,
112052.601,,267.088,326.594,
112119.261,,267.248,326.384,
112185.919,,267.189,326.632,
112252.576,,267.242,326.429,
112319.235,,267.243,326.516,
112385.894,,267.147,326.350,
112452.553,,267.318,326.485,
112519.207,,267.147,326.421,
112585.870,,267.203,326.361,
112652.529,,267.258,326.500,
112719.183,,267.181,326.307,
112785.841,,267.278,326.372,
112852.504,,267.109,326.368,
112919.156,,267.263,326.548,
112985.815,,267.175,326.519,
113052.473,,267.152,326.531,
113119.133,,267.164,326.522,
113185.792,,267.295,326.734,
113252.450,,267.186,326.402,
113319.111,,267.223,326.542,
113385.765,,267.154,326.344,
113452.422,,267.224,326.389,
113519.086,,267.232,326.337,
113585.742,,267.030,326.507,
113652.398,,267.060,326.379,
113719.058,,267.198,326.361,
113785.719,,267.105,326.315,
113852.374,,267.199,326.482,
113919.036,,267.241,326.204,
113985.690,,267.090,326.330,
114052.353,,267.146,326.273,
114119.008,,267.072,326.352,
114185.669,,267.009,326.342,
114252.325,,267.248,326.246,
114318.984,,267.049,326.257,
114385.638,,266.965,326.222,
114452.297,,267.073,326.311,
114518.961,,266.956,326.489,
114585.618,,266.879,326.325,
114652.271,,267.093,326.261,
114718.934,,267.125,326.275,
114785.593,,267.118,326.205,
114852.247,,267.136,326.176,
114918.909,,267.091,326.354,
114985.566,,267.068,326.499,
115052.223,,267.119,326.512,
115118.885,,266.940,326.404,
115185.543,,267.215,326.372,
115252.199,,267.045,326.295,
115318.855,,267.025,326.244,
115385.516,,267.181,326.278,
115452.176,,267.040,326.392,
115518.833,,267.036,326.248,
115585.490,,267.192,326.460,
115652.149,,267.068,326.302,
115718.809,,266.876,326.066,
115785.462,,267.152,326.228,
115852.122,,266.926,326.226,
115918.782,,267.103,326.129,
115985.439,,266.874,326.391,
116052.097,,267.130,326.304,
116118.757,,267.076,326.176,
116185.414,,266.975,326.337,
116252.070,,267.033,326.196,
116318.729,,267.106,326.227,
116385.392,,266.967,326.317,
116452.050,,267.089,326.273,
116518.707,,266.853,326.337,
116585.365,,267.013,326.187,
116652.020,,266.867,326.160,
116718.679,,266.911,326.162,
116785.339,,267.020,326.216,
116851.998,,266.880,326.068,
116918.656,,266.982,325.990,
116985.314,,266.853,326.066,
117051.972,,266.811,326.295,
117118.632,,267.030,326.296,
117185.289,,266.904,326.280,
117251.948,,266.951,326.204,
117318.603,,266.955,326.109,
117385.264,,267.001,326.130,
117451.919,,267.038,326.221,
117518.582,,266.846,326.219,
117585.240,,266.870,326.166,
117651.894,,267.019,326.046,
117718.552,,266.907,326.010,
117785.216,,266.817,326.145,
117851.870,,266.801,326.064,
117918.527,,266.981,325.942,
117985.186,,266.878,326.068,
118051.843,,266.874,326.050,
118118.507,,267.089,326.225,
118185.161,,266.848,326.166,
118251.822,,266.882,326.108,
118318.479,,267.043,326.194,
118385.139,,266.926,325.882,
118451.795,,266.857,325.992,
118518.454,,266.870,326.067,
118585.114,,266.852,326.190,
118651.773,,266.833,326.090,
118718.426,,266.795,326.076,
118785.090,,266.781,326.149,
118851.742,,266.677,326.104,
118918.401,,266.713,326.098,
118985.060,,266.706,326.125,
119051.720,,266.925,325.997,
119118.380,,266.611,325.968,
119185.036,,266.954,325.987,
119251.698,,266.905,325.988,
119318.350,,266.653,326.117,
119385.009,,266.703,326.089,
119451.668,,266.681,326.050,
119518.326,,266.587,325.872,
119584.988,,266.839,325.970,
119651.644,,266.825,325.874,
119718.305,,266.696,325.953,
119784.960,,266.721,325.999,
119851.619,,266.628,325.860,
119918.277,,266.719,325.971,
119984.938,,266.732,325.861,
120051.594,,266.849,325.995,
120118.251,,266.857,325.955,
120184.906,,266.859,326.038,
120251.566,,266.837,325.973,
120318.223,,266.680,326.128,
120384.880,,266.762,326.033,
120451.535,,266.664,325.901,
120518.198,,266.794,325.844,
120584.854,,266.735,325.847,
120651.510,,266.644,325.859,
120718.171,,266.656,325.861,
120784.830,,266.619,325.872,
120851.482,,266.562,325.888,
120918.142,,266.679,325.850,
120984.797,,266.642,325.767,
121051.459,,266.682,326.003,
121118.114,,266.778,326.072,
121184.772,,266.573,325.890,
121251.429,,266.688,325.921,
121318.088,,266.797,325.891,
121384.743,,266.657,325.856,
121451.399,,266.780,325.745,
121518.059,,266.629,325.877,
121584.718,,266.763,325.863,
121651.376,,266.734,325.730,
121718.033,,266.738,326.009,
121784.693,,266.544,325.955,
121851.345,,266.650,325.975,
121918.005,,266.633,325.623,
121984.666,,266.533,325.690,
122051.323,,266.536,325.956,
122117.978,,266.602,325.777,
122184.632,,266.636,325.876,
122251.295,,266.526,325.873,
122317.953,,266.641,325.844,
122384.611,,266.729,325.781,
122451.264,,266.441,325.850,
122517.926,,266.712,325.765,
122584.584,,266.414,325.791,
122651.239,,266.780,325.754,
122717.899,,266.562,325.919,
122784.554,,266.539,325.803,
122851.212,,266.508,325.730,
122917.869,,266.453,325.749,
122984.524,,266.464,325.829,
123051.185,,266.422,325.691,
123117.841,,266.779,325.901,
123184.499,,266.647,325.839,
123251.160,,266.551,325.678,
123317.813,,266.502,325.899,
123384.470,,266.556,325.707,
123451.128,,266.565,325.665,
123517.790,,266.477,325.747,
123584.441,,266.463,325.719,
123651.102,,266.567,325.739,
123717.756,,266.504,325.788,
123784.420,,266.450,325.776,
123851.072,,266.524,325.781,
123917.731,,266.398,325.719,
123984.392,,266.486,325.662,
124051.050,,266.464,325.852,
124117.708,,266.578,325.718,
124184.364,,266.534,325.734,
124251.017,,266.451,325.674,
124317.679,,266.590,325.540,
124384.336,,266.484,325.575,
124450.992,,266.386,325.649,
124517.652,,266.407,325.628,
124584.307,,266.525,325.640,
124650.964,,266.463,325.683,
124717.622,,266.354,325.446,
124784.278,,266.429,325.626,
124850.940,,266.403,325.649,
124917.594,,266.439,325.586,
124984.251,,266.410,325.691,
125050.910,,266.437,325.716,
125117.569,,266.548,325.767,
125184.226,,266.485,325.592,
125250.885,,266.340,325.777,
125317.542,,266.449,325.731,
125384.200,,266.283,325.664,
125450.856,,266.448,325.692,
125517.514,,266.491,325.711,
125584.168,,266.378,325.456,
125650.828,,266.431,325.764,
125717.488,,266.496,325.487,
125784.142,,266.535,325.705,
125850.800,,266.247,325.676,
125917.461,,266.365,325.620,
125984.113,,266.578,325.632,
126050.774,,266.338,325.659,
126117.431,,266.449,325.675,
126184.090,,266.316,325.643,
126250.749,,266.500,325.772,
126317.403,,266.338,325.598,
126384.060,,266.202,325.695,
126450.720,,266.406,325.747,
126517.376,,266.555,325.595,
126584.036,,266.463,325.665,
126650.693,,266.337,325.589,
126717.352,,266.386,325.609,
126784.005,,266.238,325.366,
126850.661,,266.430,325.575,
126917.320,,266.331,325.588,
126983.978,,266.514,325.638,
127050.637,,266.310,325.639,
127117.292,,266.488,325.470,
127183.952,,266.359,325.565,
127250.606,,266.369,325.445,
127317.268,,266.408,325.525,
127383.923,,266.239,325.647,
127450.581,,266.309,325.589,
127517.241,,266.503,325.555,
127583.900,,266.517,325.561,
127650.557,,266.233,325.573,
127717.210,,266.445,325.634,
127783.873,,266.296,325.638,
127850.528,,266.211,325.439,
127917.186,,266.334,325.315,
127983.844,,266.349,325.444,
128050.498,,266.410,325.511,
128117.160,,266.119,325.473,
128183.820,,266.259,325.741,
128250.475,,266.238,325.586,
128317.136,,266.291,325.598,
128383.796,,266.322,325.517,
128450.452,,266.262,325.546,
128517.111,,266.228,325.495,
128583.770,,266.264,325.515,
128650.430,,266.342,325.470,
128717.084,,266.275,325.397,
128783.744,,266.251,325.471,
128850.404,,266.362,325.332,
128917.059,,266.174,325.530,
128983.716,,266.269,325.574,
129050.379,,266.245,325.493,
129117.033,,266.133,325.604,
129183.694,,266.420,325.641,
129250.354,,266.413,325.640,
129317.012,,266.250,325.412,
129383.665,,266.273,325.324,
129450.324,,266.289,325.472,
129516.984,,266.352,325.600,
129583.641,,266.234,325.496,
129650.303,,266.287,325.473,
129716.963,,266.255,325.471,
129783.617,,266.131,325.532,
129850.275,,266.262,325.365,
129916.936,,266.088,325.568,
129983.591,,266.296,325.225,
130050.254,,266.345,325.538,
130116.908,,266.171,325.554,
130183.569,,266.179,325.331,
130250.223,,266.299,325.293,
130316.883,,266.224,325.495,
130383.543,,266.184,325.473,
130450.203,,266.356,325.381,
130516.860,,266.339,325.444,
130583.518,,266.087,325.406,
130650.177,,266.242,325.378,
130716.835,,266.241,325.491,
130783.490,,266.186,325.316,
130850.148,,266.227,325.435,
130916.808,,266.179,325.506,
130983.470,,266.138,325.583,
131050.124,,266.145,325.394,
131116.785,,266.208,325.368,
131183.441,,266.201,325.360,
131250.104,,266.229,325.299,
131316.760,,266.054,325.306,
131383.419,,266.123,325.290,
131450.073,,266.184,325.496,
131516.736,,266.197,325.362,
131583.395,,266.140,325.302,
131650.049,,266.065,325.475,
131716.711,,266.225,325.370,
131783.371,,266.224,325.449,
131850.029,,266.161,325.396,
131916.683,,266.153,325.212,
131983.344,,265.992,325.298,
132049.998,,266.266,325.258,
132116.658,,266.109,325.433,
132183.318,,266.164,325.265,
132249.975,,266.091,325.397,
132316.635,,265.996,325.466,
132383.294,,266.130,325.149,
132449.952,,266.116,325.263,
132516.612,,266.134,325.284,
132583.270,,266.155,325.371,
132649.927,,266.177,325.357,
132716.581,,266.206,325.111,
132783.242,,266.217,325.195,
132849.901,,266.012,325.399,
132916.560,,266.186,325.300,
132983.221,,266.153,325.132,
133049.875,,265.950,325.268,
133116.533,,266.208,325.370,
133183.194,,266.064,325.425,
133249.849,,266.041,325.295,
133316.508,,266.144,325.348,
133383.169,,266.150,325.120,
133449.827,,266.055,325.267,
133516.485,,266.061,325.317,
133583.142,,265.982,325.258,
133649.799,,265.834,325.377,
133716.458,,266.142,325.452,
133783.118,,266.003,325.304,
133849.779,,265.987,325.415,
133916.432,,266.082,325.309,
133983.092,,265.927,325.302,
134049.752,,265.965,325.146,
134116.410,,266.003,325.347,
134183.069,,265.974,325.374,
134249.729,,265.957,325.334,
134316.384,,265.950,325.344,
134383.044,,266.012,325.312,
134449.702,,265.943,325.168,
134516.357,,266.024,325.456,
134583.015,,266.010,325.267,
134649.678,,266.127,325.280,
134716.338,,266.007,325.171,
134782.991,,266.111,325.228,
134849.649,,265.995,325.235,
134916.307,,266.172,325.163,
134982.967,,265.966,325.280,
135049.626,,266.018,325.377,
135116.281,,266.013,325.273,
135182.941,,265.985,325.383,
135249.602,,266.162,325.265,
135316.263,,265.909,325.229,
135382.918,,266.097,325.312,
135449.577,,265.956,325.238,
135516.236,,266.012,325.247,
135582.894,,265.859,325.159,
135649.553,,266.016,325.233,
135716.207,,266.103,325.383,
135782.868,,265.937,325.091,
135849.528,,265.931,325.137,
135916.182,,266.052,325.236,
135982.845,,265.884,325.234,
136049.497,,265.881,325.270,
136116.159,,265.994,325.067,
136182.815,,265.837,325.201,
136249.473,,265.920,325.425,
136316.127,,266.025,325.193,
136382.790,,266.000,325.224,
136449.449,,265.935,325.262,
136516.101,,266.144,325.168,
136582.758,,265.990,325.354,
136649.421,,266.004,325.514,
136716.078,,265.896,325.302,
136782.733,,265.875,325.272,
136849.390,,265.813,325.196,
136916.047,,265.960,325.171,
136982.706,,265.893,325.232,
137049.365,,266.012,325.217,
137116.020,,265.913,325.225,
137182.677,,265.812,325.193,
137249.340,,265.928,325.219,
137315.995,,265.939,325.102,
137382.653,,265.988,325.142,
137449.312,,266.089,325.159,
137515.969,,265.952,325.278,
137582.625,,265.994,325.191,
137649.285,,265.872,325.262,
137715.940,,265.797,325.314,
137782.601,,265.936,325.176,
137849.259,,265.958,325.113,
137915.911,,265.925,325.231,
137982.575,,265.997,325.361,
138049.227,,265.839,325.121,
138115.885,,265.963,325.126,
138182.542,,265.853,325.158,
138249.203,,265.850,325.127,
138315.858,,265.992,325.098,
138382.518,,265.926,325.264,
138449.178,,265.870,325.163,
138515.830,,265.835,325.207,
138582.489,,265.866,325.218,
138649.145,,265.979,325.105,
138715.802,,265.845,325.222,
138782.466,,265.895,325.175,
138849.119,,265.709,325.242,
138915.779,,265.881,325.034,
138982.437,,265.847,325.133,
139049.091,,265.833,325.032,
139115.749,,266.010,325.225,
139182.410,,265.810,325.257,
139249.069,,265.648,325.140,
139315.720,,265.944,324.981,
139382.382,,265.780,325.192,
139449.041,,265.819,325.180,
139515.696,,265.660,325.046,
139582.354,,265.829,325.103,
139649.011,,265.896,325.072,
139715.670,,265.916,325.048,
139782.330,,265.728,325.133,
139848.985,,265.796,325.185,
139915.645,,265.812,325.032,
139982.301,,265.772,325.084,
140048.958,,265.854,325.072,
140115.617,,265.785,325.109,
140182.270,,265.663,325.007,
140248.928,,265.882,325.165,
140315.588,,266.036,325.033,
140382.245,,265.814,325.154,
140448.900,,265.850,325.136,
140515.558,,265.809,325.160,
140582.218,,265.702,325.150,
140648.876,,265.950,325.012,
140715.534,,265.819,325.221,
140782.193,,265.655,324.952,
140848.852,,265.640,325.003,
140915.504,,265.768,325.008,
140982.166,,265.682,325.038,
141048.824,,265.801,325.077,
141115.479,,265.806,325.081,
141182.140,,265.778,325.045,
141248.796,,265.730,325.177,
141315.454,,265.942,325.112,
141382.110,,265.889,325.103,
141448.766,,265.693,325.002,
141515.425,,265.799,325.143,
141582.079,,265.722,324.958,
