TimeStamp,Lights,Channel1
0.000,410,392.283
33.331,470,413.029
66.666,410,391.788
99.995,470,412.207
133.329,410,390.898
166.660,470,411.840
199.996,410,390.372
233.328,470,411.359
266.666,410,389.646
299.997,470,410.632
333.327,410,389.084
366.665,470,410.013
399.998,410,388.498
433.328,470,409.484
466.661,410,387.900
499.995,470,409.302
533.328,410,387.293
566.665,470,408.491
599.998,410,387.005
633.331,470,408.127
666.665,410,386.442
699.999,470,407.927
733.332,410,386.007
766.661,470,407.376
799.996,410,385.591
833.328,470,406.836
866.661,410,385.063
899.996,470,406.445
933.327,410,384.519
966.661,470,406.348
999.999,410,384.104
1033.333,470,405.801
1066.662,410,383.654
1099.997,470,405.583
1133.332,410,383.216
1166.665,470,405.390
1199.998,410,382.978
1233.332,470,404.847
1266.662,410,382.531
1299.997,470,404.513
1333.329,410,382.226
1366.660,470,404.265
1399.998,410,381.788
1433.330,470,403.919
1466.663,410,381.343
1499.997,470,403.736
1533.331,410,381.095
1566.666,470,403.227
1599.994,410,380.944
1633.328,470,403.233
1666.663,410,380.316
1699.998,470,403.006
1733.326,410,380.222
1766.663,470,402.791
1800.000,410,379.670
1833.331,470,402.364
1866.666,410,379.641
1899.999,470,402.185
1933.332,410,379.441
1966.664,470,402.021
1999.999,410,378.967
2033.333,470,401.659
2066.666,410,378.731
2099.997,470,401.436
2133.333,410,378.401
2166.666,470,401.225
2199.993,410,378.217
2233.327,470,400.735
2266.661,410,377.886
2299.996,470,400.575
2333.330,410,377.587
2366.663,470,400.647
2399.995,410,377.368
2433.329,470,400.285
2466.664,410,377.161
2499.995,470,399.996
2533.332,410,376.754
2566.664,470,399.763
2599.998,410,376.628
2633.327,470,399.694
2666.664,410,376.386
2699.996,470,399.449
2733.330,410,376.117
2766.666,470,399.284
2799.996,410,375.794
2833.333,470,399.092
2866.660,410,375.481
2899.998,470,398.946
2933.330,410,375.290
2966.664,470,398.623
2999.994,410,375.008
3033.332,470,398.840
3066.664,410,374.928
3099.994,470,398.457
3133.330,410,374.826
3166.666,470,398.154
3199.993,410,374.403
3233.327,470,398.172
3266.664,410,374.237
3299.997,470,397.769
3333.333,410,374.044
3366.665,470,397.692
3400.000,410,373.730
3433.330,470,397.745
3466.662,410,373.503
3499.999,470,397.301
3533.328,410,373.432
3566.662,470,397.419
3599.995,410,373.150
3633.330,470,397.014
3666.664,410,373.007
3699.995,470,396.877
3733.328,410,372.712
3766.664,470,396.773
3799.999,410,372.462
3833.327,470,396.727
3866.663,410,372.381
3899.995,470,396.525
3933.331,410,372.303
3966.660,470,396.264
3999.999,410,371.886
4033.331,470,396.071
4066.665,410,372.050
4099.994,470,395.787
4133.330,410,371.550
4166.661,470,396.002
4199.999,410,371.415
4233.327,470,395.953
4266.662,410,371.147
4299.994,470,395.521
4333.333,410,371.040
4366.667,470,395.378
4399.999,410,370.920
4433.329,470,395.361
4466.664,410,370.587
4499.996,470,395.093
4533.329,410,370.589
4566.662,470,395.130
4599.994,410,370.454
4633.333,470,395.101
4666.662,410,370.093
4699.997,470,394.799
4733.327,410,369.995
4766.662,470,394.716
4800.000,410,369.619
4833.327,470,394.704
4866.662,410,369.696
4899.994,470,394.305
4933.329,410,369.391
4966.665,470,394.220
4999.998,410,369.342
5033.329,470,394.174
5066.664,410,369.208
5100.000,470,394.021
5133.327,410,368.874
5166.666,470,393.952
5199.994,410,368.843
5233.328,470,393.883
5266.665,410,368.620
5299.994,470,393.759
5333.329,410,368.576
5366.661,470,393.626
5399.999,410,368.264
5433.330,470,393.471
5466.663,410,368.265
5499.998,470,393.269
5533.333,410,367.976
5566.663,470,393.233
5599.994,410,367.827
5633.328,470,393.033
5666.666,410,367.682
5699.993,470,392.825
5733.329,410,367.392
5766.664,470,392.907
5799.996,410,367.299
5833.333,470,392.711
5866.663,410,367.135
5899.999,470,392.661
5933.332,410,367.043
5966.666,470,392.477
5999.999,410,366.850
6033.332,470,392.567
6066.661,410,366.961
6099.999,470,392.424
6133.330,410,366.671
6166.661,470,392.193
6199.993,410,366.528
6233.328,470,392.085
6266.661,410,366.277
6299.994,470,391.765
6333.328,410,366.353
6366.662,470,391.907
6399.999,410,366.074
6433.327,470,391.720
6466.667,410,365.923
6499.997,470,391.823
6533.327,410,365.600
6566.666,470,391.689
6599.995,410,365.744
6633.333,470,391.354
6666.664,410,365.267
6699.999,470,391.300
6733.330,410,365.209
6766.661,470,391.144
6799.995,410,365.185
6833.329,470,391.099
6866.666,410,365.124
6899.998,470,390.911
6933.333,410,364.912
6966.664,470,390.969
6999.995,410,364.852
7033.329,470,390.995
7066.662,410,364.741
7099.998,470,390.936
7133.330,410,364.678
7166.667,470,390.789
7199.994,410,364.446
7233.332,470,390.550
7266.662,410,364.291
7299.995,470,390.394
7333.329,410,364.285
7366.660,470,390.465
7399.997,410,364.004
7433.329,470,390.366
7466.663,410,363.898
7499.999,470,390.363
7533.327,410,363.862
7566.665,470,389.991
7599.998,410,363.446
7633.328,470,390.112
7666.663,410,363.470
7699.997,470,389.831
7733.331,410,363.505
7766.663,470,389.883
7799.998,410,363.343
7833.329,470,389.762
7866.666,410,363.267
7899.995,470,389.710
7933.329,410,363.228
7966.660,470,389.709
7999.998,410,363.095
8033.328,470,389.518
8066.665,410,362.815
8099.996,470,389.489
8133.329,410,362.886
8166.662,470,389.302
8199.996,410,362.669
8233.328,470,389.031
8266.663,410,362.436
8299.999,470,389.224
8333.330,410,362.443
8366.667,470,388.980
8399.999,410,362.345
8433.328,470,388.875
8466.660,410,362.133
8499.998,470,388.828
8533.328,410,362.016
8566.666,470,388.873
8599.994,410,361.767
8633.333,470,388.706
8666.662,410,361.852
8699.995,470,388.836
8733.329,410,361.887
8766.665,470,388.675
8799.998,410,361.582
8833.332,470,388.566
8866.662,410,361.547
8899.999,470,388.473
8933.326,410,361.310
8966.664,470,388.377
8999.998,410,361.329
9033.332,470,388.190
9066.666,410,360.997
9100.000,470,388.151
9133.333,410,361.152
9166.666,470,388.122
9199.996,410,361.018
9233.330,470,387.976
9266.663,410,360.954
9299.996,470,388.021
9333.333,410,360.820
9366.663,470,387.850
9399.998,410,360.637
9433.329,470,387.868
9466.661,410,360.340
9499.997,470,387.738
9533.331,410,360.362
9566.660,470,387.567
9599.998,410,360.157
9633.327,470,387.706
9666.661,410,360.205
9699.995,470,387.326
9733.330,410,360.057
9766.665,470,387.438
9799.998,410,359.884
9833.330,470,387.555
9866.660,410,359.714
9899.994,470,387.441
9933.332,410,359.881
9966.660,470,387.161
9999.994,410,359.550
10033.329,470,387.170
10066.661,410,359.343
10099.998,470,386.994
10133.333,410,359.585
10166.661,470,387.061
10199.999,410,359.294
10233.329,470,386.713
10266.665,410,359.237
10299.994,470,386.797
10333.333,410,359.165
10366.662,470,386.597
10399.995,410,359.066
10433.330,470,386.612
10466.664,410,358.990
10499.995,470,386.619
10533.329,410,358.724
10566.664,470,386.547
10599.999,410,358.682
10633.333,470,386.562
10666.665,410,358.877
10699.995,470,386.935
10733.331,410,359.197
10766.661,470,387.392
10799.997,410,360.131
10833.333,470,388.806
10866.660,410,361.520
10899.996,470,390.105
10933.331,410,362.758
10966.664,470,391.167
10999.998,410,363.906
11033.333,470,392.067
11066.661,410,364.313
11099.997,470,392.652
11133.333,410,364.565
11166.667,470,392.848
11199.996,410,364.627
11233.330,470,392.865
11266.667,410,364.716
11299.997,470,392.724
11333.329,410,364.492
11366.661,470,392.265
11399.996,410,363.769
11433.330,470,392.132
11466.662,410,363.982
11499.998,470,392.145
11533.331,410,363.962
11566.664,470,392.018
11599.995,410,363.648
11633.333,470,391.916
11666.660,410,363.623
11699.997,470,391.901
11733.329,410,363.649
11766.666,470,391.821
11799.996,410,363.330
11833.333,470,391.439
11866.664,410,363.086
11899.995,470,391.265
11933.332,410,362.951
11966.661,470,391.123
11999.994,410,362.765
12033.332,470,391.116
12066.663,410,362.585
12099.998,470,390.923
12133.327,410,362.167
12166.663,470,390.492
12199.995,410,362.024
12233.331,470,390.552
12266.663,410,362.201
12299.999,470,390.990
12333.328,410,362.597
12366.661,470,391.158
12399.998,410,362.683
12433.333,470,391.501
12466.660,410,362.600
12499.993,470,391.149
12533.330,410,362.235
12566.666,470,390.395
12599.995,410,361.789
12633.333,470,390.626
12666.667,410,361.692
12699.995,470,390.438
12733.328,410,362.082
12766.661,470,390.667
12799.996,410,361.929
12833.329,470,390.756
12866.667,410,361.968
12900.000,470,390.376
12933.332,410,361.662
12966.663,470,390.334
12999.996,410,361.646
13033.327,470,390.301
13066.664,410,361.651
13099.999,470,390.324
13133.330,410,361.579
13166.666,470,390.107
13199.999,410,361.492
13233.332,470,390.225
13266.666,410,361.361
13299.995,470,390.467
13333.333,410,361.452
13366.663,470,390.117
13399.997,410,361.262
13433.331,470,390.097
13466.663,410,361.247
13499.999,470,390.018
13533.331,410,361.017
13566.664,470,389.997
13599.994,410,361.061
13633.332,470,389.871
13666.665,410,360.736
13699.994,470,389.885
13733.327,410,360.734
13766.663,470,389.735
13799.994,410,360.567
13833.332,470,389.544
13866.662,410,360.245
13899.997,470,389.424
13933.330,410,360.325
13966.663,470,389.532
13999.996,410,360.130
14033.327,470,389.279
14066.661,410,360.227
14099.994,470,389.174
14133.332,410,360.066
14166.663,470,389.473
14199.995,410,360.269
14233.326,470,389.264
14266.666,410,360.019
14299.999,470,389.294
14333.332,410,360.088
14366.666,470,389.046
14399.996,410,359.712
14433.328,470,388.998
14466.664,410,359.860
14499.997,470,389.150
14533.332,410,359.682
14566.663,470,389.012
14599.998,410,359.573
14633.327,470,388.818
14666.661,410,359.487
14699.999,470,388.888
14733.332,410,359.307
14766.661,470,388.829
14799.998,410,359.140
14833.328,470,388.802
14866.665,410,359.235
14899.999,470,388.408
14933.331,410,358.961
14966.662,470,388.206
14999.993,410,359.048
15033.328,470,388.195
15066.662,410,359.014
15099.995,470,388.569
15133.331,410,358.988
15166.665,470,388.378
15199.996,410,358.801
15233.327,470,388.199
15266.664,410,358.911
15299.996,470,388.366
15333.328,410,358.585
15366.661,470,388.295
15399.995,410,358.529
15433.332,470,388.217
15466.663,410,358.599
15499.997,470,388.053
15533.327,410,358.372
15566.666,470,387.856
15599.996,410,358.284
15633.332,470,388.078
15666.664,410,358.183
15699.997,470,387.800
15733.328,410,358.111
15766.666,470,387.798
15799.994,410,358.020
15833.331,470,387.818
15866.664,410,357.984
15899.998,470,387.797
15933.333,410,357.930
15966.666,470,387.470
15999.983,410,357.962
16033.321,470,387.478
16066.641,410,357.808
16099.975,470,387.439
16133.296,410,357.759
16166.633,470,387.390
16199.958,410,357.495
16233.285,470,387.207
16266.611,410,357.300
16299.945,470,387.339
16333.267,410,357.522
16366.600,470,387.254
16399.924,410,357.451
16433.255,470,387.068
16466.579,410,357.179
16499.909,470,387.173
16533.235,410,357.160
16566.572,470,387.112
16599.890,410,357.202
16633.225,470,386.919
16666.546,410,357.106
16699.880,470,387.055
16733.198,410,356.964
16766.539,470,386.855
16799.858,410,356.936
16833.190,470,386.796
16866.508,410,356.913
16899.846,470,387.010
16933.165,410,356.773
16966.503,470,386.761
16999.823,410,356.712
17033.158,470,386.736
17066.474,410,356.623
17099.810,470,386.743
17133.131,410,356.708
17166.467,470,386.692
17199.788,410,356.658
17233.125,470,386.656
17266.441,410,356.510
17299.777,470,386.617
17333.097,410,356.420
17366.432,470,386.595
17399.750,410,356.067
17433.088,470,386.407
17466.403,410,356.298
17499.742,470,386.391
17533.058,410,356.263
17566.395,470,386.249
17599.717,410,356.174
17633.052,470,386.253
17666.367,410,356.195
17699.705,470,386.273
17733.025,410,355.938
17766.361,470,386.060
17799.676,410,355.994
17833.012,470,386.107
17866.329,410,355.656
17899.669,470,386.104
17932.982,410,355.993
17966.323,470,386.278
17999.640,410,355.688
18032.977,470,386.030
18066.290,410,355.537
18099.625,470,385.897
18132.946,410,355.611
18166.285,470,385.775
18199.599,410,355.624
18232.937,470,385.829
18266.251,410,355.406
18299.593,470,385.581
18332.905,410,355.216
18366.244,470,385.876
18399.559,410,355.040
18432.893,470,385.650
18466.210,410,355.209
18499.549,470,385.661
18532.864,410,355.131
18566.203,470,385.614
18599.515,410,355.048
18632.854,470,385.610
18666.174,410,355.017
18699.506,470,385.633
18732.826,410,354.870
18766.160,470,385.426
18799.474,410,354.812
18832.812,470,385.441
18866.130,410,354.796
18899.466,470,385.406
18932.780,410,354.737
18966.123,470,385.386
18999.437,410,354.684
19032.771,470,385.208
19066.089,410,354.577
19099.427,470,385.023
19132.739,410,354.625
19166.080,470,385.149
19199.393,410,354.554
19232.730,470,385.163
19266.046,410,354.308
19299.385,470,385.120
19332.696,410,354.281
19366.035,470,385.157
19399.351,410,354.329
19432.688,470,384.999
19466.002,410,354.248
19499.338,470,385.023
19532.648,410,354.229
19565.989,470,384.860
19599.302,410,354.017
19632.644,470,384.826
19665.956,410,354.210
19699.293,470,384.901
19732.606,410,354.121
19765.943,470,384.656
19799.260,410,353.882
19832.597,470,384.699
19865.911,410,353.699
19899.247,470,384.708
19932.562,410,353.676
19965.904,470,384.752
19999.212,410,353.703
20032.552,470,384.699
20065.865,410,353.637
20099.207,470,384.397
20132.516,410,353.547
20165.852,470,384.442
20199.166,410,353.562
20232.503,470,384.465
20265.813,410,353.390
20299.159,470,384.531
20332.470,410,353.454
20365.811,470,384.532
20399.117,410,353.339
20432.462,470,384.249
20465.766,410,353.318
20499.111,470,384.135
20532.417,410,353.167
20565.760,470,384.243
20599.067,410,353.266
20632.408,470,384.224
20665.720,410,353.035
20699.061,470,384.098
20732.372,410,353.068
20765.709,470,384.073
20799.016,410,352.780
20832.364,470,383.897
20865.673,410,352.777
20899.014,470,383.805
20932.316,410,352.759
20965.663,470,383.713
20998.973,410,352.675
21032.315,470,383.870
21065.622,410,352.557
21098.961,470,383.772
21132.268,410,352.453
21165.613,470,383.591
21198.915,410,352.442
21232.262,470,383.639
21265.566,410,352.501
21298.910,470,383.667
21332.218,410,352.279
21365.565,470,383.702
21398.869,410,352.000
21432.214,470,383.562
21465.514,410,352.116
21498.865,470,383.389
21532.167,410,352.124
21565.511,470,383.086
21598.813,410,352.015
21632.160,470,383.202
21665.465,410,351.864
21698.811,470,383.163
21732.116,410,351.855
21765.460,470,383.090
21798.762,410,351.925
21832.109,470,383.494
21865.409,410,352.031
21898.759,470,383.465
21932.056,410,351.843
21965.408,470,383.547
21998.707,410,351.996
22032.056,470,383.248
22065.354,410,351.986
22098.702,470,383.179
22132.006,410,351.873
22165.354,470,383.260
22198.650,410,351.846
22231.998,470,383.274
22265.299,410,351.656
22298.646,470,383.221
22331.949,410,351.429
22365.294,470,383.159
22398.600,410,351.608
22431.947,470,383.155
22465.243,410,351.697
22498.595,470,383.223
22531.892,410,351.614
22565.241,470,383.138
22598.542,410,351.337
22631.892,470,383.016
22665.189,410,351.277
22698.536,470,383.057
22731.841,410,351.486
22765.186,470,382.977
22798.487,410,351.146
22831.831,470,382.882
22865.134,410,351.218
22898.482,470,382.617
22931.781,410,351.245
22965.127,470,382.849
22998.424,410,351.139
23031.775,470,382.744
23065.078,410,351.452
23098.422,470,382.865
23131.720,410,351.220
23165.073,470,382.807
23198.367,410,350.604
23231.720,470,381.993
23265.019,410,350.036
23298.366,470,381.620
23331.666,410,349.904
23365.010,470,381.566
23398.308,410,350.624
23431.663,470,382.930
23464.960,410,351.462
23498.306,470,383.405
23531.604,410,351.555
23564.953,470,383.219
23598.248,410,351.649
23631.604,470,383.495
23664.894,410,351.606
23698.248,470,383.320
23731.544,410,351.751
23764.897,470,383.322
23798.186,410,351.464
23831.541,470,383.381
23864.838,410,351.530
23898.190,470,383.451
23931.481,410,351.818
23964.837,470,383.467
23998.139,410,351.657
24031.491,470,383.328
24064.799,410,351.479
24098.149,470,383.249
24131.454,410,351.252
24164.807,470,382.971
24198.109,410,351.341
24231.461,470,383.329
24264.768,410,351.271
24298.121,470,383.405
24331.427,410,351.815
24364.775,470,383.982
24398.083,410,352.272
24431.433,470,384.191
24464.738,410,352.436
24498.090,470,384.457
24531.395,410,352.635
24564.745,470,384.599
24598.055,410,352.425
24631.405,470,384.529
24664.710,410,352.250
24698.059,470,384.522
24731.372,410,352.670
24764.716,470,384.483
24798.027,410,352.528
24831.376,470,384.615
24864.686,410,352.401
24898.033,470,384.530
24931.341,410,352.270
24964.690,470,384.441
24997.995,410,352.124
25031.341,470,384.436
25064.654,410,352.022
25098.004,470,384.350
25131.313,410,352.136
25164.658,470,384.447
25197.971,410,352.635
25231.313,470,384.935
25264.628,410,353.441
25297.971,470,385.528
25331.282,410,353.437
25364.628,470,385.634
25397.940,410,353.478
25431.285,470,385.698
25464.599,410,353.711
25497.943,470,386.197
25531.253,410,354.145
25564.596,470,386.551
25597.913,410,354.423
25631.251,470,386.745
25664.570,410,354.414
25697.911,470,386.844
25731.225,410,354.214
25764.565,470,386.594
25797.880,410,354.036
25831.225,470,386.560
25864.541,410,354.174
25897.883,470,386.276
25931.193,410,353.842
25964.533,470,386.019
25997.853,410,353.617
26031.189,470,385.600
26064.507,410,353.425
26097.851,470,385.702
26131.164,410,352.982
26164.504,470,385.345
26197.826,410,352.731
26231.159,470,385.326
26264.482,410,352.663
26297.819,470,385.118
26331.135,410,352.267
26364.473,470,384.634
26397.790,410,351.635
26431.130,470,384.016
26464.449,410,351.171
26497.785,470,383.467
26531.107,410,350.816
26564.446,470,383.358
26597.763,410,350.686
26631.098,470,382.938
26664.421,410,350.268
26697.752,470,382.772
26731.075,410,350.211
26764.412,470,382.511
26797.735,410,349.890
26831.069,470,382.532
26864.385,410,350.073
26897.722,470,382.661
26931.048,410,349.965
26964.380,470,382.385
26997.702,410,349.741
27031.038,470,382.401
27064.357,410,349.938
27097.689,470,382.255
27131.016,410,349.765
27164.346,470,382.189
27197.672,410,349.623
27231.000,470,382.133
27264.325,410,349.276
27297.659,470,381.961
27330.984,410,349.475
27364.315,470,381.999
27397.642,410,349.039
27430.973,470,381.911
27464.299,410,349.062
27497.626,470,381.801
27530.949,410,349.205
27564.284,470,381.938
27597.612,410,349.066
27630.935,470,381.832
27664.265,410,349.087
27697.591,470,381.727
27730.923,410,348.683
27764.250,470,381.331
27797.575,410,348.322
27830.902,470,380.879
27864.233,410,348.256
27897.560,470,381.117
27930.886,410,348.529
27964.219,470,381.696
27997.545,410,349.157
28030.873,470,381.991
28064.199,410,349.477
28097.525,470,382.322
28130.859,410,349.542
28164.184,470,382.122
28197.515,410,349.484
28230.841,470,382.350
28264.168,410,349.242
28297.495,470,382.409
28330.825,410,349.595
28364.148,470,382.614
28397.481,410,349.724
28430.802,470,382.585
28464.140,410,349.702
28497.459,470,382.519
28530.794,410,349.559
28564.116,470,382.800
28597.448,410,349.607
28630.775,470,382.886
28664.105,410,349.789
28697.430,470,382.774
28730.759,410,349.852
28764.081,470,382.710
28797.417,410,349.491
28830.740,470,382.559
28864.075,410,349.257
28897.395,470,382.264
28930.729,410,348.958
28964.050,470,382.064
28997.386,410,348.921
29030.703,470,382.070
29064.040,410,348.796
29097.358,470,381.956
29130.699,410,348.936
29164.013,470,382.047
29197.350,410,348.901
29230.671,470,382.128
29264.005,410,348.857
29297.327,470,381.969
29330.660,410,348.726
29363.977,470,382.068
29397.320,410,348.874
29430.636,470,382.078
29463.971,410,348.796
29497.287,470,381.936
29530.628,410,348.381
29563.943,470,381.669
29597.288,410,348.232
29630.602,470,381.283
29663.943,410,348.088
29697.251,470,381.353
29730.595,410,348.133
29763.909,470,381.604
29797.254,410,348.061
29830.562,470,381.354
29863.908,410,348.306
29897.221,470,381.457
29930.560,410,347.922
29963.874,470,381.227
29997.216,410,347.954
30030.532,470,381.296
30063.876,410,347.973
30097.182,470,381.277
30130.527,410,347.943
30163.837,470,381.367
30197.187,410,348.012
30230.493,470,381.496
30263.836,410,348.228
30297.150,470,381.507
30330.492,410,348.114
30363.801,470,381.567
30397.147,410,348.274
30430.456,470,381.689
30463.805,410,347.925
30497.110,470,381.334
30530.460,410,347.834
30563.771,470,381.404
30597.116,410,348.186
30630.422,470,381.935
30663.770,410,348.591
30697.079,470,382.154
30730.425,410,348.858
30763.733,470,382.303
30797.085,410,348.921
30830.387,470,382.498
30863.736,410,348.824
30897.043,470,382.687
30930.390,410,349.479
30963.696,470,383.195
30997.046,410,349.487
31030.350,470,382.950
31063.702,410,349.812
31097.007,470,383.287
31130.359,410,349.886
31163.642,470,383.452
31197.015,410,349.976
31230.314,470,383.752
31263.664,410,350.286
31296.967,470,384.100
31330.324,410,350.559
31363.624,470,384.206
31396.975,410,350.402
31430.278,470,384.206
31463.630,410,350.417
31496.931,470,384.175
31530.286,410,350.510
31563.586,470,384.399
31596.944,410,350.876
31630.241,470,384.546
31663.594,410,350.882
31696.896,470,384.524
31730.250,410,350.861
31763.545,470,384.566
31796.909,410,351.010
31830.201,470,384.601
31863.558,410,351.029
31896.856,470,384.717
31930.218,410,351.280
31963.508,470,384.920
31996.873,410,351.121
32030.169,470,384.840
32063.530,410,351.263
32096.826,470,385.030
32130.187,410,351.488
32163.486,470,385.223
32196.847,410,351.379
32230.138,470,385.111
32263.506,410,351.102
32296.796,470,384.823
32330.161,410,351.077
32363.454,470,385.132
32396.822,410,351.117
32430.115,470,384.738
32463.479,410,351.003
32496.769,470,384.596
32530.138,410,350.707
32563.426,470,384.535
32596.794,410,350.392
32630.086,470,384.192
32663.455,410,349.857
32696.746,470,383.570
32730.111,410,349.507
32763.397,470,383.565
32796.772,410,349.540
32830.058,470,383.409
32863.428,410,349.643
32896.716,470,383.524
32930.082,410,349.594
32963.373,470,383.633
32996.742,410,349.874
33030.030,470,383.626
33063.399,410,349.803
33096.689,470,383.495
33130.060,410,349.537
33163.346,470,383.359
33196.716,410,349.427
33229.999,470,383.385
33263.377,410,349.235
33296.658,470,383.211
33330.030,410,348.594
33363.316,470,381.773
33396.693,410,347.842
33429.974,470,381.798
33463.349,410,348.124
33496.632,470,382.058
33530.004,410,348.149
33563.291,470,382.047
33596.665,410,347.883
33629.945,470,382.037
33663.322,410,347.802
33696.604,470,381.819
33729.983,410,347.865
33763.259,470,381.774
33796.636,410,347.532
33829.920,470,381.916
33863.296,410,347.662
33896.571,470,381.606
33929.950,410,347.637
33963.234,470,381.837
33996.611,410,347.512
34029.890,470,381.823
34063.272,410,347.740
34096.548,470,381.631
34129.925,410,347.316
34163.203,470,381.319
34196.585,410,347.055
34229.863,470,381.067
34263.239,410,346.635
34296.521,470,380.701
34329.899,410,346.223
34363.178,470,379.864
34396.560,410,345.471
34429.833,470,379.535
34463.216,410,345.257
34496.488,470,379.457
34529.873,410,345.063
34563.150,470,379.205
34596.529,410,345.179
34629.804,470,379.349
34663.186,410,344.917
34696.459,470,379.391
34729.846,410,345.121
34763.120,470,379.540
34796.504,410,345.266
34829.775,470,379.204
34863.165,410,345.137
34896.430,470,379.408
34929.822,410,345.009
34963.093,470,379.461
34996.480,410,345.054
35029.745,470,379.280
35063.136,410,344.811
35096.407,470,379.308
35129.796,410,344.939
35163.064,470,379.204
35196.450,410,344.869
35229.721,470,379.208
35263.111,410,344.649
35296.374,470,379.132
35329.767,410,344.633
35363.030,470,379.163
35396.426,410,344.779
35429.691,470,379.367
35463.082,410,344.690
35496.349,470,379.210
35529.740,410,344.730
35563.004,470,379.334
35596.395,410,344.738
35629.662,470,379.232
35663.053,410,344.552
35696.318,470,379.179
35729.714,410,344.740
35762.974,470,378.981
35796.371,410,344.625
35829.630,470,379.180
35863.026,410,344.602
35896.289,470,379.113
35929.685,410,344.567
35962.949,470,378.925
35996.343,410,344.551
36029.604,470,379.155
36062.996,410,344.477
36096.259,470,379.327
36129.657,410,344.702
36162.914,470,378.974
36196.316,410,344.799
36229.570,470,379.467
36262.969,410,344.749
36296.231,470,379.451
36329.630,410,344.941
36362.889,470,379.702
36396.284,410,345.300
36429.547,470,379.831
36462.943,410,345.524
36496.199,470,380.009
36529.599,410,345.516
36562.860,470,380.109
36596.257,410,345.369
36629.512,470,379.916
36662.916,410,345.275
36696.174,470,379.901
36729.570,410,345.368
36762.827,470,380.203
36796.230,410,345.549
36829.485,470,380.072
36862.889,410,345.576
36896.142,470,380.241
36929.544,410,345.520
36962.796,470,379.985
36996.203,410,345.549
37029.458,470,380.060
37062.860,410,345.383
37096.112,470,379.947
37129.518,410,345.114
37162.768,470,379.948
37196.175,410,345.086
37229.423,470,379.770
37262.830,410,345.055
37296.080,470,379.853
37329.487,410,344.965
37362.741,470,379.597
37396.144,410,344.968
37429.393,470,379.501
37462.805,410,344.667
37496.054,470,379.448
37529.458,410,344.795
37562.705,470,379.459
37596.116,410,344.719
37629.366,470,379.349
37662.773,410,344.770
37696.021,470,379.425
37729.432,410,344.314
37762.679,470,378.547
37796.094,410,343.628
37829.336,470,378.399
37862.746,410,343.444
37895.992,470,378.283
37929.404,410,343.691
37962.651,470,378.336
37996.060,410,344.152
38029.308,470,379.198
38062.723,410,344.527
38095.965,470,379.396
38129.375,410,344.582
38162.620,470,379.592
38196.032,410,344.840
38229.276,470,379.824
38262.692,410,344.877
38295.930,470,380.003
38329.350,410,345.032
38362.585,470,380.023
38396.006,410,345.203
38429.246,470,380.389
38462.660,410,345.143
38495.905,470,380.053
38529.323,410,345.515
38562.559,470,380.284
38595.974,410,345.559
38629.215,470,380.235
38662.635,410,345.183
38695.869,470,379.389
38729.290,410,343.966
38762.526,470,378.241
38795.952,410,343.197
38829.187,470,377.773
38862.609,410,343.278
38895.840,470,378.320
38929.263,410,343.632
38962.500,470,378.698
38995.923,410,343.815
39029.156,470,378.283
39062.580,410,343.112
39095.809,470,377.297
39129.236,410,341.990
39162.464,470,376.357
39195.893,410,340.872
39229.119,470,375.966
39262.549,410,341.086
39295.780,470,376.244
39329.209,410,341.474
39362.436,470,376.599
39395.863,410,341.779
39429.095,470,376.945
39462.522,410,341.755
39495.751,470,376.487
39529.180,410,341.218
39562.407,470,376.171
39595.835,410,340.919
39629.058,470,375.784
39662.494,410,340.751
39695.714,470,375.696
39729.145,410,340.590
39762.373,470,375.511
39795.803,410,340.441
39829.032,470,375.637
39862.462,410,340.710
39895.688,470,375.884
39929.122,410,340.629
39962.340,470,375.955
39995.780,410,340.779
40028.998,470,376.233
40062.432,410,341.040
40095.660,470,376.050
40129.093,410,340.865
40162.317,470,375.949
40195.752,410,340.954
40228.973,470,375.924
40262.410,410,340.662
40295.634,470,375.863
40329.066,410,340.714
40362.290,470,375.814
40395.723,410,340.688
40428.949,470,375.884
40462.378,410,340.882
40495.605,470,375.672
40529.038,410,340.692
40562.264,470,375.836
40595.695,410,340.657
40628.924,470,375.559
40662.355,410,340.714
40695.583,470,375.601
40729.013,410,340.516
40762.240,470,375.641
40795.670,410,340.460
40828.896,470,375.626
40862.326,410,340.576
40895.555,470,375.898
40928.983,410,340.562
40962.216,470,375.665
40995.643,410,340.267
41028.872,470,375.622
41062.301,410,340.336
41095.530,470,375.527
41128.960,410,340.298
41162.185,470,375.414
41195.612,410,339.983
41228.846,470,375.554
41262.274,410,340.168
41295.506,470,375.439
41328.932,410,340.254
41362.162,470,375.459
41395.588,410,340.123
41428.818,470,375.360
41462.247,410,340.158
41495.474,470,375.397
41528.904,410,340.047
41562.134,470,375.336
41595.563,410,340.094
41628.794,470,375.467
41662.216,410,340.225
41695.450,470,375.381
41728.873,410,340.047
41762.105,470,375.439
41795.532,410,340.150
41828.768,470,375.429
41862.191,410,340.066
41895.422,470,375.471
41928.851,410,340.219
41962.082,470,375.738
41995.506,410,340.750
42028.744,470,376.111
42062.166,410,340.841
42095.399,470,376.436
42128.820,410,341.207
42162.053,470,376.424
42195.478,410,341.199
42228.714,470,376.409
42262.139,410,340.963
42295.374,470,376.359
42328.791,410,340.782
42362.028,470,375.823
42395.449,410,340.415
42428.687,470,375.904
42462.111,410,340.703
42495.344,470,376.200
42528.766,410,340.983
42562.002,470,376.419
42595.420,410,341.039
42628.663,470,376.588
42662.082,410,341.109
42695.319,470,376.565
42728.738,410,340.896
42761.980,470,376.237
42795.399,410,341.051
42828.635,470,376.456
42862.051,410,341.225
42895.293,470,376.873
42928.714,410,341.240
42961.953,470,376.884
42995.372,410,341.215
43028.609,470,376.866
43062.024,410,341.157
43095.266,470,376.633
43128.686,410,341.230
43161.926,470,376.510
43195.339,410,341.033
43228.584,470,376.895
43261.996,410,341.399
43295.242,470,376.965
43328.659,410,341.284
43361.898,470,376.726
43395.314,410,340.878
43428.558,470,376.474
43461.972,410,340.140
43495.212,470,375.482
43528.630,410,339.684
43561.874,470,375.349
43595.283,410,339.715
43628.529,470,375.311
43661.942,410,339.575
43695.188,470,375.172
43728.601,410,339.514
43761.845,470,375.056
43795.256,410,339.453
43828.504,470,374.988
43861.918,410,339.465
43895.158,470,375.016
43928.573,410,339.332
43961.820,470,375.321
43995.228,410,339.383
44028.476,470,375.069
44061.884,410,339.685
44095.134,470,375.102
44128.542,410,339.347
44161.789,470,374.885
44195.199,410,339.265
44228.452,470,374.967
44261.857,410,338.860
44295.109,470,374.791
44328.519,410,339.047
44361.762,470,375.063
44395.175,410,339.078
44428.421,470,374.827
44461.831,410,338.992
44495.082,470,374.765
44528.472,410,339.083
44561.736,470,374.885
44595.145,410,338.950
44628.397,470,374.861
44661.800,410,338.965
44695.057,470,374.922
44728.459,410,339.164
44761.712,470,374.859
44795.120,410,338.761
44828.368,470,374.723
44861.778,410,339.011
44895.024,470,374.830
44928.434,410,338.977
44961.682,470,374.706
44995.087,410,338.623
45028.343,470,374.600
45061.748,410,338.616
45094.999,470,374.429
45128.401,410,338.682
45161.659,470,374.588
45195.063,410,338.716
45228.317,470,374.486
45261.719,410,338.728
45294.974,470,374.481
45328.377,410,338.473
45361.633,470,374.525
45395.034,410,338.690
45428.289,470,374.469
45461.688,410,338.641
45494.945,470,374.468
45528.344,410,338.315
45561.605,470,374.387
45595.002,410,338.437
45628.265,470,374.478
45661.665,410,338.572
45694.922,470,374.448
45728.321,410,338.605
45761.578,470,374.446
45794.978,410,338.437
45828.234,470,374.465
45861.635,410,338.497
45894.892,470,374.290
45928.292,410,338.506
45961.550,470,374.475
45994.950,410,338.587
46028.207,470,374.440
46061.606,410,338.446
46094.865,470,374.374
46128.260,410,338.409
46161.526,470,374.342
46194.916,410,338.335
46228.183,470,374.165
46261.577,410,338.348
46294.837,470,374.263
46328.233,410,338.090
46361.498,470,374.193
46394.892,410,338.252
46428.153,470,374.209
46461.550,410,338.024
46494.814,470,374.072
46528.203,410,338.101
46561.472,470,373.999
46594.863,410,338.062
46628.124,470,374.071
46661.518,410,337.964
46694.785,470,373.818
46728.179,410,337.816
46761.443,470,373.729
46794.832,410,337.781
46828.096,470,373.797
46861.487,410,337.910
46894.753,470,373.997
46928.150,410,338.015
46961.411,470,374.068
46994.802,410,338.048
47028.071,470,373.996
47061.460,410,337.825
47094.729,470,373.718
47128.121,410,337.673
47161.390,470,373.759
47194.777,410,337.702
47228.043,470,373.799
47261.436,410,337.677
47294.700,470,373.605
47328.093,410,337.683
47361.360,470,373.754
47394.750,410,337.579
47428.018,470,373.682
47461.403,410,337.500
47494.673,470,373.695
47528.064,410,337.486
47561.329,470,373.735
47594.721,410,337.465
47627.989,470,373.462
47661.373,410,337.536
47694.644,470,373.671
47728.036,410,337.601
47761.301,470,373.540
47794.689,410,337.587
47827.960,470,373.820
47861.349,410,337.445
47894.617,470,373.599
47928.000,410,337.355
47961.276,470,373.710
47994.661,410,337.375
48027.932,470,373.606
48061.319,410,337.329
48094.593,470,373.589
48127.973,410,337.307
48161.247,470,373.596
48194.636,410,337.223
48227.910,470,373.516
48261.293,410,337.223
48294.568,470,373.501
48327.948,410,337.269
48361.226,470,373.570
48394.608,410,337.155
48427.881,470,373.403
48461.263,410,337.054
48494.539,470,373.305
48527.921,410,336.970
48561.195,470,373.372
48594.585,410,337.110
48627.857,470,373.290
48661.236,410,337.043
48694.514,470,373.492
48727.900,410,337.239
48761.172,470,373.610
48794.554,410,337.223
48827.824,470,373.535
48861.213,410,337.151
48894.487,470,373.549
48927.869,410,337.187
48961.143,470,373.375
48994.531,410,336.910
49027.800,470,373.345
49061.184,410,337.154
49094.456,470,373.569
49127.842,410,337.151
49161.118,470,373.479
49194.499,410,337.128
49227.771,470,373.567
49261.162,410,337.334
49294.431,470,373.201
49327.818,410,336.867
49361.088,470,373.153
49394.475,410,336.732
49427.749,470,373.158
49461.133,410,336.779
49494.405,470,373.140
49527.790,410,336.644
49561.062,470,373.255
49594.445,410,336.919
49627.719,470,373.626
49661.107,410,337.424
49694.380,470,373.995
49727.764,410,337.634
49761.037,470,373.889
49794.424,410,337.780
49827.694,470,374.254
49861.078,410,337.933
49894.348,470,374.516
49927.736,410,338.383
49961.004,470,375.127
49994.397,410,339.207
50027.667,470,376.531
50061.050,410,340.504
50094.320,470,377.135
50127.712,410,340.784
50160.981,470,377.401
50194.369,410,341.422
50227.641,470,378.012
50261.024,410,341.696
50294.293,470,378.192
50327.685,410,341.967
50360.950,470,378.450
50394.343,410,341.975
50427.613,470,378.565
50461.001,410,342.045
50494.271,470,378.820
50527.654,410,342.221
50560.925,470,378.747
50594.315,410,342.127
50627.582,470,378.502
50660.970,410,342.050
50694.240,470,378.550
50727.629,410,342.052
50760.898,470,378.472
50794.290,410,341.770
50827.556,470,378.200
50860.945,410,341.629
50894.216,470,378.172
50927.599,410,341.580
50960.874,470,378.341
50994.262,410,341.559
51027.527,470,378.358
51060.915,410,341.984
51094.185,470,378.693
51127.577,410,342.163
51160.843,470,378.709
51194.234,410,342.264
51227.503,470,378.614
51260.889,410,342.152
51294.162,470,379.008
51327.545,410,342.154
51360.817,470,378.845
