{"Light":{"Led410Enable":true;"Led470Enable":true;"Led560Enable":false;"Led410Value":50.0;"Led470Value":50.0;"Led560Value":100.0};"Excitation":{"mode":1;"discontinuous":false;"interval_time":1;"continuous_time":1};"Channels":[{"Name":"CH1";"ChanelColor":"#00000000";"Roi1":"344.121126760563;241.354929577464;96.1521126760566;96.1521126760566";"Roi2":"319;227;96.1521126760566;96.1521126760566"}];"AllMarking":[{"id":0;"type":1;"opened":true;"name":"STIM";"Levels":0;"color":"#FFFF0000";"key":0;"threshold":0.0;"ID":"0";"all":true;"channels":["AllChannel";"CH1"];"enable":true};{"id":0;"type":2;"opened":true;"name":"Input1";"Levels":0;"color":"#FFFF0000";"key":0;"threshold":0.0;"ID":"0";"all":true;"channels":["AllChannel";"CH1"];"enable":true};{"id":0;"type":2;"opened":true;"name":"Input2";"Levels":0;"color":"#FF604A7B";"key":0;"threshold":0.0;"ID":"0";"all":true;"channels":["AllChannel";"CH1"];"enable":true};{"id":0;"type":2;"opened":true;"name":"Input3";"Levels":0;"color":"#FF92D050";"key":0;"threshold":0.0;"ID":"0";"all":true;"channels":["AllChannel";"CH1"];"enable":true};{"id":0;"type":2;"opened":true;"name":"Input4";"Levels":0;"color":"#FF0099FF";"key":0;"threshold":0.0;"ID":"0";"all":true;"channels":["AllChannel";"CH1"];"enable":true}];"Fps":30.0}
TimeStamp,Events,CH1-410,CH1-470,
0.000,,571.266,644.807,
66.667,,602.356,666.056,
133.328,,626.022,687.482,
199.999,,641.079,696.532,
266.661,,640.221,687.497,
333.333,,643.683,690.845,
400.001,,634.769,689.095,
466.665,,641.200,695.199,
533.334,,649.817,705.952,
599.998,,667.662,721.390,
666.668,,675.157,725.603,
733.332,,677.021,724.896,
799.997,,676.166,723.891,
866.666,,676.232,724.678,
933.329,,673.936,720.823,
999.998,,668.907,715.580,
1066.663,,666.223,711.117,
1133.330,,657.587,703.790,
1199.995,,655.327,703.068,
1266.662,,655.443,703.932,
1333.328,,656.258,704.055,
1399.997,,655.260,699.290,
1466.663,,647.814,693.101,
1533.332,,639.523,683.003,
1599.999,,629.608,675.919,
1666.661,,629.196,682.507,
1733.331,,638.537,691.072,
1799.996,,642.488,693.448,
1866.665,,644.902,698.701,
1933.331,,651.969,704.853,
1999.995,,655.814,708.529,
2066.666,,662.699,714.281,
2133.331,,666.270,718.187,
2199.997,,670.649,718.320,
2266.668,,667.907,714.938,
2333.334,,665.520,713.313,
2399.998,,663.933,710.731,
2466.667,,660.515,705.068,
2533.332,,657.217,702.849,
2599.999,,648.957,695.033,
2666.662,,648.716,696.612,
2733.332,,646.751,696.767,
2800.001,,649.057,699.516,
2866.662,,650.924,700.177,
2933.330,,651.713,699.437,
2999.995,,650.799,700.299,
3066.661,,652.407,701.558,
3133.329,,651.964,701.385,
3200.000,,656.235,707.114,
3266.662,,659.419,708.817,
3333.334,,662.958,707.264,
3400.000,,659.386,708.515,
3466.664,,659.821,710.537,
3533.333,,661.509,709.319,
3599.995,,657.473,705.506,
3666.664,,656.486,703.415,
3733.333,,651.109,696.284,
3800.001,,645.870,690.170,
3866.664,,637.115,683.575,
3933.329,,635.223,684.388,
4000.000,,637.256,687.048,
4066.665,,639.003,685.748,
4133.330,,632.477,681.399,
4200.001,,628.908,679.725,
4266.668,,629.510,680.397,
4333.328,,629.465,680.121,
4400.000,,628.731,679.507,
4466.665,,629.830,680.439,
4533.332,,629.929,681.618,
4599.999,,631.834,681.151,
4666.664,,627.846,678.456,
4733.329,,626.414,675.166,
4799.995,,624.466,675.817,
4866.665,,625.075,674.280,
4933.334,,622.997,673.714,
5000.000,,622.818,673.961,
5066.661,,628.008,680.223,
5133.329,,632.081,681.529,
5199.997,,635.691,683.298,
5266.665,,633.232,680.364,
5333.332,,633.686,684.582,
5400.000,,634.730,680.292,
5466.665,,629.437,676.246,
5533.327,,627.031,676.204,
5599.996,,627.241,674.703,
5666.662,,627.423,679.697,
5733.328,,628.188,674.411,
5799.996,,623.167,670.703,
5866.666,,623.639,672.113,
5933.334,,622.848,668.900,
5999.998,,623.524,670.205,
6066.666,,621.545,667.567,
6133.332,,620.299,668.481,
6199.999,,620.542,667.316,
6266.665,,618.431,663.764,
6333.330,,616.654,662.652,
6399.994,,617.569,663.876,
6466.661,,616.959,663.142,
6533.328,,617.251,663.244,
6599.998,,616.599,662.711,
6666.664,,617.246,664.052,
6733.330,,617.714,661.881,
6799.998,,614.886,660.615,
6866.667,,614.417,658.840,
6933.330,,611.883,655.366,
6999.996,,609.442,655.290,
7066.666,,608.802,652.148,
7133.329,,606.048,648.344,
7199.999,,604.427,651.969,
7266.663,,610.960,656.946,
7333.330,,612.026,656.141,
7399.997,,609.523,650.617,
7466.662,,607.879,653.946,
7533.328,,612.061,658.470,
7599.995,,616.693,659.625,
7666.667,,616.315,660.829,
7733.331,,620.562,665.443,
7800.001,,621.728,663.395,
7866.667,,618.080,658.303,
7933.334,,612.068,653.743,
7999.999,,610.514,648.790,
8066.666,,603.896,645.854,
8133.328,,606.498,648.893,
8199.995,,607.522,649.302,
8266.665,,606.696,647.398,
8333.330,,603.370,642.892,
8400.000,,602.224,645.005,
8466.663,,603.857,641.868,
8533.330,,596.948,630.701,
8600.000,,585.149,619.206,
8666.665,,580.928,619.361,
8733.331,,579.421,616.868,
8799.999,,579.531,617.782,
8866.666,,582.695,621.217,
8933.331,,581.454,615.359,
8999.994,,577.887,616.437,
9066.664,,582.608,623.721,
9133.332,,590.146,635.708,
9200.000,,596.950,642.405,
9266.667,,604.115,658.216,
9333.334,,616.307,664.568,
9399.996,,617.506,664.890,
9466.663,,617.973,666.788,
9533.330,,619.858,668.893,
9599.998,,621.421,670.414,
9666.667,,622.604,671.785,
9733.334,,623.470,669.327,
9800.001,,620.424,669.709,
9866.662,,621.414,670.647,
9933.333,,621.965,669.564,
9999.994,,620.134,668.367,
10066.665,,619.561,668.543,
10133.330,,619.105,667.479,
10199.996,,618.627,666.893,
10266.664,,618.096,667.193,
10333.332,,618.447,667.787,
10399.995,,619.051,667.058,
10466.662,,617.904,666.993,
10533.329,,618.415,667.073,
10599.997,,618.313,666.998,
10666.664,,618.151,667.190,
10733.330,,618.994,668.015,
10799.995,,619.547,668.255,
10866.666,,619.156,667.678,
10933.334,,619.104,667.617,
10999.999,,618.368,667.108,
11066.666,,618.622,666.979,
11133.329,,617.683,666.187,
11199.995,,616.970,664.965,
11266.667,,616.002,663.918,
11333.334,,614.764,663.438,
11399.998,,615.380,664.456,
11466.665,,615.080,663.650,
11533.331,,614.730,663.529,
11600.001,,614.349,662.952,
11666.661,,613.992,663.300,
11733.333,,614.690,663.260,
11799.998,,614.448,663.311,
11866.667,,613.627,662.377,
11933.332,,613.634,662.487,
11999.997,,613.537,662.241,
12066.662,,613.275,662.349,
12133.331,,612.536,661.507,
12199.996,,612.260,661.291,
12266.664,,612.103,661.149,
12333.333,,611.835,660.298,
12399.999,,610.882,659.949,
12466.665,,610.969,659.859,
12533.333,,610.768,659.293,
12600.000,,609.825,658.344,
12666.667,,609.729,659.191,
12733.330,,609.976,658.655,
12800.000,,610.043,659.311,
12866.661,,610.163,658.637,
12933.332,,609.430,658.210,
12999.998,,609.134,658.364,
13066.664,,609.685,658.592,
13133.334,,609.404,658.702,
13199.996,,609.739,658.266,
13266.661,,609.327,658.981,
13333.333,,609.876,658.631,
13399.999,,609.658,658.937,
13466.662,,609.691,658.510,
13533.334,,609.361,658.304,
13600.000,,610.067,659.071,
13666.665,,609.721,657.683,
13733.328,,608.491,657.419,
13799.997,,608.893,657.545,
13866.666,,608.408,657.214,
13933.329,,607.946,656.759,
13999.995,,608.004,657.091,
14066.666,,608.682,657.841,
14133.330,,609.089,657.983,
14200.001,,609.173,657.812,
14266.664,,608.769,657.120,
14333.334,,608.249,656.708,
14399.997,,608.008,656.905,
14466.666,,607.553,655.846,
14533.331,,606.730,656.002,
14599.998,,607.089,655.999,
14666.663,,606.649,655.448,
14733.334,,606.540,655.675,
14800.000,,606.607,655.528,
14866.667,,606.835,655.612,
14933.330,,606.668,655.450,
14999.999,,606.052,654.717,
15066.666,,605.719,654.788,
15133.328,,605.876,655.117,
15199.999,,606.095,654.936,
15266.662,,606.006,654.281,
15333.333,,604.865,654.118,
15399.999,,605.410,654.167,
15466.666,,604.558,653.502,
15533.332,,604.626,652.824,
15599.996,,603.298,652.140,
15666.663,,603.405,653.117,
15733.333,,604.474,654.231,
15799.996,,605.727,654.675,
15866.663,,605.863,654.078,
15933.331,,605.073,653.903,
15999.986,,604.494,652.495,
16066.647,,603.269,652.215,
16133.307,,603.195,651.621,
16199.962,,602.355,651.427,
16266.620,,602.355,650.272,
16333.276,,601.267,650.538,
16399.936,,602.066,650.963,
16466.590,,602.060,651.510,
16533.247,,602.889,651.700,
16599.903,,602.106,650.775,
16666.562,,601.606,651.163,
16733.218,,602.268,650.856,
16799.875,,601.940,651.104,
16866.533,,602.098,651.343,
16933.192,,602.044,650.929,
16999.843,,602.050,651.127,
17066.504,,601.584,650.283,
17133.156,,600.985,650.329,
17199.812,,600.749,648.837,
