{"Light":{"Led410Enable":true;"Led470Enable":true;"Led560Enable":false;"Led410Value":50.0;"Led470Value":50.0;"Led560Value":100.0};"Excitation":{"mode":1;"discontinuous":false;"interval_time":1;"continuous_time":1};"Channels":[{"Name":"CH1";"ChanelColor":"#00000000";"Roi1":"346.171830985915;250.583098591549;96.1521126760566;96.1521126760566";"Roi2":"319;227;96.1521126760566;96.1521126760566"}];"AllMarking":[{"id":0;"type":1;"opened":true;"name":"STIM";"Levels":0;"color":"#FFFF0000";"key":0;"threshold":0.0;"ID":"0";"all":true;"channels":["AllChannel";"CH1"];"enable":true};{"id":0;"type":2;"opened":true;"name":"Input1";"Levels":0;"color":"#FFFF0000";"key":0;"threshold":0.0;"ID":"0";"all":true;"channels":["AllChannel";"CH1"];"enable":true};{"id":0;"type":2;"opened":true;"name":"Input2";"Levels":0;"color":"#FF604A7B";"key":0;"threshold":0.0;"ID":"0";"all":true;"channels":["AllChannel";"CH1"];"enable":true};{"id":0;"type":2;"opened":true;"name":"Input3";"Levels":0;"color":"#FF92D050";"key":0;"threshold":0.0;"ID":"0";"all":true;"channels":["AllChannel";"CH1"];"enable":true};{"id":0;"type":2;"opened":true;"name":"Input4";"Levels":0;"color":"#FF0099FF";"key":0;"threshold":0.0;"ID":"0";"all":true;"channels":["AllChannel";"CH1"];"enable":true}];"Fps":30.0}
TimeStamp,Events,CH1-410,CH1-470,
0.000,,516.991,542.134,
66.663,,517.271,540.932,
133.329,,515.149,539.205,
199.996,,514.354,540.596,
266.663,,513.076,539.093,
333.329,,510.846,538.554,
400.001,,510.581,541.434,
466.666,,509.057,540.187,
533.328,,507.824,540.115,
599.997,,508.384,539.794,
666.666,,508.287,541.859,
733.329,,508.687,541.702,
799.995,,509.329,543.492,
866.662,,508.324,540.995,
933.331,,507.897,541.033,
999.995,,507.388,540.416,
1066.665,,507.572,537.283,
1133.332,,504.586,536.221,
1199.997,,505.455,534.588,
1266.663,,505.781,533.860,
1333.331,,504.737,533.150,
1399.996,,504.552,531.967,
1466.663,,501.641,529.868,
1533.332,,501.749,527.628,
1600.001,,496.669,527.025,
1666.668,,498.686,527.655,
1733.330,,498.268,527.500,
1799.995,,499.612,525.572,
1866.667,,497.309,524.671,
1933.329,,498.727,524.628,
1999.996,,499.475,524.975,
2066.664,,499.640,525.443,
2133.333,,501.318,525.471,
2199.996,,500.195,524.586,
2266.662,,500.180,525.201,
2333.329,,501.693,524.824,
2399.998,,500.510,525.224,
2466.667,,501.400,526.660,
2533.333,,501.123,525.154,
2599.995,,499.036,527.319,
2666.663,,502.309,527.820,
2733.328,,503.266,529.510,
2799.996,,504.170,530.747,
2866.664,,504.284,529.927,
2933.333,,504.515,529.037,
2999.999,,504.265,528.790,
3066.662,,503.788,526.651,
3133.328,,502.831,526.738,
3200.000,,501.724,522.017,
3266.666,,498.268,522.711,
3333.330,,498.395,521.094,
3399.998,,500.390,524.068,
3466.667,,502.028,523.565,
3533.331,,502.398,525.014,
3599.996,,502.797,523.913,
3666.667,,502.307,523.558,
3733.329,,502.733,524.052,
3799.994,,503.376,523.571,
3866.662,,502.731,523.495,
3933.328,,504.338,525.243,
4000.000,,506.573,526.666,
4066.663,,503.274,524.289,
4133.327,,505.607,524.340,
4199.999,,501.656,523.855,
4266.661,,502.999,524.218,
4333.333,,502.600,524.726,
4400.000,,503.126,524.651,
4466.664,,504.201,523.688,
4533.334,,503.168,523.810,
4599.996,,503.532,521.576,
4666.664,,499.866,521.243,
4733.329,,499.524,519.720,
4800.000,,500.724,522.181,
4866.661,,500.463,521.960,
4933.330,,503.081,522.288,
4999.996,,501.221,522.293,
5066.667,,501.722,522.883,
5133.332,,501.875,521.789,
5199.995,,502.167,521.352,
5266.667,,502.377,522.176,
5333.333,,501.390,522.345,
5399.999,,502.565,523.269,
5466.662,,504.361,525.798,
5533.328,,505.095,526.924,
5599.999,,506.467,527.880,
5666.666,,507.781,528.481,
5733.330,,508.710,527.754,
5799.997,,504.696,523.736,
5866.661,,502.152,522.345,
5933.333,,500.158,522.813,
5999.999,,504.119,522.752,
6066.665,,504.481,522.307,
6133.328,,501.454,520.449,
6200.001,,502.224,523.651,
6266.666,,505.038,524.174,
6333.329,,505.506,521.736,
6399.996,,501.556,522.198,
6466.668,,505.901,524.582,
6533.329,,505.834,524.948,
6599.994,,504.245,524.830,
6666.662,,505.499,525.096,
6733.330,,503.902,523.481,
6799.996,,504.168,523.092,
6866.663,,503.423,521.091,
6933.330,,499.476,519.731,
6999.996,,499.441,518.966,
7066.662,,499.767,519.557,
7133.332,,501.177,520.247,
7199.996,,503.177,522.504,
7266.666,,502.959,521.963,
7333.328,,501.228,521.766,
7399.998,,500.627,522.806,
7466.665,,505.156,524.253,
7533.331,,507.377,523.564,
7600.001,,504.931,522.909,
7666.665,,506.275,524.711,
7733.329,,507.537,520.796,
7799.995,,501.673,521.860,
7866.666,,505.291,523.428,
7933.332,,504.966,525.017,
7999.995,,507.753,527.276,
8066.661,,511.175,528.781,
8133.332,,507.608,524.977,
8200.001,,503.538,524.056,
8266.666,,502.604,519.867,
8333.330,,498.127,518.957,
8399.999,,496.283,517.466,
8466.665,,496.737,516.752,
8533.333,,496.587,520.276,
8599.997,,500.451,521.929,
8666.665,,502.498,524.489,
8733.333,,501.151,523.704,
8799.997,,504.407,525.196,
8866.666,,497.501,523.097,
8933.332,,497.886,519.815,
8999.998,,495.937,519.713,
9066.666,,493.348,519.636,
9133.331,,495.330,519.089,
9199.997,,495.356,518.923,
9266.661,,493.648,518.118,
9333.333,,492.299,517.773,
9400.000,,493.081,518.030,
9466.661,,494.079,518.157,
9533.333,,495.487,520.267,
9599.995,,493.918,520.770,
9666.665,,495.872,519.114,
9733.334,,497.995,523.608,
9799.997,,503.682,526.291,
9866.661,,504.112,525.925,
9933.334,,503.363,525.281,
9999.997,,503.619,525.752,
10066.665,,504.091,524.882,
10133.328,,504.166,524.771,
10199.996,,504.147,525.131,
10266.662,,502.087,523.412,
10333.328,,501.257,522.396,
10399.999,,501.967,521.364,
10466.663,,499.704,520.470,
10533.327,,500.234,519.257,
10599.997,,499.086,521.743,
10666.666,,500.301,520.260,
10733.329,,499.772,520.866,
10799.996,,502.308,520.583,
10866.663,,500.271,519.627,
10933.332,,500.225,520.753,
10999.998,,500.649,520.106,
11066.664,,500.106,519.835,
11133.334,,499.881,520.020,
11199.998,,501.336,520.048,
11266.666,,499.965,521.009,
11333.330,,501.315,521.401,
11399.999,,499.090,521.910,
11466.668,,502.744,522.656,
11533.333,,501.209,521.647,
11599.998,,501.561,521.991,
11666.661,,500.113,520.134,
11733.334,,499.723,520.997,
11799.995,,499.325,519.334,
11866.664,,498.982,519.686,
11933.334,,499.799,517.962,
11999.994,,495.433,518.407,
12066.661,,499.429,519.541,
12133.332,,499.841,520.927,
12199.997,,501.389,520.700,
12266.666,,500.152,519.018,
12333.331,,496.844,518.923,
12400.000,,498.098,517.290,
12466.661,,495.912,518.705,
12533.329,,497.882,518.827,
12599.996,,500.415,518.935,
12666.666,,497.458,517.181,
12733.334,,498.157,517.511,
12800.000,,495.487,519.257,
12866.666,,498.897,519.558,
12933.332,,501.508,521.144,
12999.997,,500.981,519.805,
13066.667,,501.768,521.269,
13133.327,,501.589,519.943,
13200.000,,500.853,520.756,
13266.664,,502.314,519.664,
13333.330,,502.052,519.296,
13399.997,,503.994,521.720,
13466.661,,503.670,521.212,
13533.331,,503.534,519.510,
13599.998,,501.613,520.619,
13666.667,,505.128,519.554,
13733.332,,500.665,517.182,
13799.995,,500.760,517.034,
13866.666,,498.452,515.658,
13933.330,,499.477,516.499,
13999.998,,499.482,515.740,
14066.664,,499.700,515.587,
14133.329,,500.107,516.352,
14199.996,,499.861,515.556,
14266.664,,498.997,516.099,
14333.332,,501.076,515.907,
14399.997,,499.830,515.436,
14466.662,,499.299,516.159,
14533.332,,500.375,516.334,
14599.997,,499.319,515.523,
14666.664,,498.943,516.313,
14733.330,,500.075,516.448,
14799.994,,498.651,516.317,
14866.661,,498.146,517.093,
14933.330,,499.077,517.365,
14999.998,,498.416,516.611,
15066.665,,499.828,517.812,
15133.330,,500.001,517.473,
15199.998,,500.983,520.218,
15266.664,,499.647,518.254,
15333.329,,500.159,518.430,
15399.995,,500.323,518.765,
15466.668,,499.425,517.988,
15533.334,,499.359,518.513,
15599.999,,500.173,519.444,
15666.662,,500.526,517.755,
15733.331,,498.040,516.722,
15799.995,,498.025,513.800,
15866.664,,496.092,514.377,
15933.332,,494.814,513.007,
15999.991,,494.668,514.761,
16066.648,,495.784,513.700,
16133.301,,495.856,513.751,
16199.961,,497.567,514.804,
16266.619,,496.602,514.238,
16333.277,,495.978,514.558,
16399.933,,497.009,513.306,
16466.587,,495.264,513.450,
16533.248,,495.238,512.432,
16599.904,,495.043,514.051,
16666.562,,497.494,514.901,
16733.216,,498.280,514.456,
16799.876,,498.033,515.496,
16866.533,,499.045,514.549,
16933.186,,497.236,514.248,
16999.841,,499.024,516.140,
17066.502,,498.004,515.825,
17133.155,,497.702,515.515,
17199.813,,498.327,516.484,
17266.466,,498.323,516.177,
17333.126,,497.569,516.520,
17399.783,,498.465,518.278,
17466.438,,498.533,520.104,
17533.096,,502.527,520.246,
17599.751,,499.404,519.029,
17666.406,,503.199,521.767,
17733.061,,503.224,519.808,
17799.714,,501.840,518.826,
17866.370,,500.248,516.303,
17933.026,,497.677,515.058,
17999.684,,497.780,514.041,
18066.336,,495.093,512.280,
18132.994,,496.831,514.114,
18199.652,,497.575,513.633,
18266.302,,496.595,514.421,
18332.956,,498.687,513.729,
18399.615,,497.504,513.323,
18466.270,,497.715,515.268,
18532.922,,497.597,516.082,
18599.575,,497.382,517.429,
18666.233,,497.999,518.552,
18732.884,,498.808,517.930,
18799.541,,498.144,517.950,
18866.198,,498.161,517.404,
18932.852,,499.126,519.700,
18999.503,,499.116,517.739,
19066.157,,503.214,521.100,
19132.812,,504.139,519.523,
19199.470,,501.635,517.069,
19266.123,,498.838,513.867,
19332.772,,494.235,512.185,
19399.427,,495.704,513.275,
19466.085,,497.065,512.976,
19532.737,,497.812,514.656,
19599.389,,497.238,512.717,
19666.044,,495.870,514.072,
19732.698,,498.539,514.252,
19799.347,,498.340,513.106,
19866.002,,496.937,513.051,
19932.655,,498.361,513.925,
19999.311,,496.929,512.986,
20065.962,,497.095,513.777,
20132.615,,496.527,511.891,
20199.265,,496.547,513.781,
20265.922,,496.787,513.431,
20332.575,,496.386,513.995,
20399.227,,498.378,514.718,
20465.877,,497.841,514.640,
20532.532,,497.757,515.862,
20599.181,,497.895,515.243,
20665.837,,497.008,515.676,
20732.486,,497.393,516.320,
20799.139,,497.123,517.167,
20865.794,,498.328,517.193,
20932.443,,499.638,517.672,
20999.093,,500.180,515.876,
21065.752,,500.507,516.411,
21132.402,,500.183,516.613,
21199.050,,500.662,517.824,
21265.702,,501.277,516.464,
21332.355,,498.478,513.979,
21399.010,,496.282,509.886,
21465.658,,493.870,509.511,
21532.313,,490.601,508.391,
21598.964,,492.466,509.475,
21665.611,,494.346,509.796,
21732.264,,495.757,511.682,
21798.913,,496.015,511.219,
21865.563,,495.327,510.889,
21932.214,,495.468,512.356,
21998.871,,496.121,511.246,
22065.515,,495.102,510.969,
22132.169,,495.850,512.213,
22198.817,,496.242,512.093,
22265.468,,495.357,512.073,
22332.121,,494.651,513.370,
22398.775,,496.461,512.827,
22465.420,,495.663,512.087,
22532.073,,494.926,512.709,
22598.722,,496.345,513.017,
22665.370,,497.411,515.486,
22732.025,,497.580,514.927,
22798.670,,499.301,516.342,
22865.320,,500.805,517.027,
22931.969,,500.455,517.713,
22998.619,,500.100,516.353,
23065.270,,498.138,514.361,
23131.921,,497.885,513.593,
23198.571,,496.924,513.364,
23265.221,,496.774,512.776,
23331.867,,495.392,511.751,
23398.517,,495.952,513.112,
23465.168,,495.948,510.425,
23531.814,,494.020,511.230,
23598.463,,494.615,509.691,
23665.115,,492.481,510.046,
23731.762,,493.504,508.039,
23798.413,,490.396,509.246,
23865.060,,493.842,510.463,
23931.712,,493.758,511.530,
23998.365,,497.133,510.888,
24065.022,,495.938,511.009,
24131.683,,496.368,512.325,
24198.336,,496.807,511.069,
24264.995,,496.136,512.488,
24331.651,,497.607,512.458,
24398.304,,498.409,513.746,
24464.962,,496.577,513.574,
24531.616,,496.347,512.960,
24598.275,,494.976,512.210,
24664.932,,495.770,512.064,
24731.587,,495.695,509.913,
24798.242,,495.781,510.950,
24864.903,,494.594,509.490,
24931.555,,492.264,509.958,
24998.210,,491.063,507.307,
25064.869,,494.183,510.198,
25131.529,,496.875,510.998,
25198.182,,495.885,510.824,
25264.840,,495.521,509.968,
25331.492,,495.764,510.976,
25398.148,,495.915,511.022,
25464.806,,495.104,510.783,
25531.462,,495.853,511.524,
25598.114,,495.533,512.650,
25664.776,,496.847,513.592,
25731.430,,496.157,513.274,
25798.084,,495.387,512.930,
25864.742,,494.424,511.405,
25931.398,,492.742,513.749,
25998.055,,497.306,516.640,
26064.711,,500.814,518.410,
26131.367,,498.463,517.219,
26198.021,,499.368,518.300,
26264.672,,498.805,516.904,
26331.333,,497.376,518.005,
26397.989,,497.008,517.237,
26464.644,,497.360,517.156,
26531.295,,497.541,517.758,
26597.956,,495.999,517.694,
26664.611,,496.499,517.400,
26731.261,,494.670,517.311,
26797.917,,498.242,516.870,
26864.577,,497.523,515.758,
26931.231,,497.570,515.197,
26997.883,,496.336,514.382,
27064.541,,496.247,511.622,
27131.197,,492.568,512.612,
27197.848,,492.956,509.012,
27264.505,,492.485,511.495,
27331.161,,493.724,510.815,
27397.815,,493.431,512.321,
27464.473,,493.198,511.772,
27531.124,,492.835,511.906,
27597.783,,495.512,511.566,
27664.440,,494.421,511.888,
27731.093,,496.185,514.081,
27797.744,,494.803,513.860,
27864.400,,495.538,515.066,
27931.054,,493.246,513.041,
27997.713,,495.226,514.567,
28064.368,,495.108,513.325,
28131.021,,495.641,513.973,
28197.673,,496.565,512.949,
28264.330,,494.290,511.878,
28330.988,,495.505,511.535,
28397.641,,494.672,511.010,
28464.296,,494.806,511.799,
28530.951,,494.878,510.979,
28597.601,,494.561,511.562,
28664.256,,496.636,512.280,
28730.913,,494.523,511.598,
28797.565,,495.368,510.990,
28864.223,,494.187,510.558,
28930.876,,497.371,512.427,
28997.527,,498.461,513.729,
29064.186,,498.130,512.989,
29130.838,,498.738,513.963,
29197.492,,499.389,515.124,
29264.145,,501.156,516.141,
29330.798,,500.719,516.023,
29397.454,,502.560,515.648,
29464.112,,499.775,515.783,
29530.766,,499.925,516.508,
29597.416,,498.651,515.163,
29664.074,,497.963,515.170,
29730.728,,498.353,515.329,
29797.383,,496.061,516.247,
29864.033,,497.581,514.811,
29930.690,,499.514,513.566,
29997.339,,497.531,513.224,
30063.993,,496.465,512.922,
30130.652,,496.088,512.449,
30197.305,,496.923,511.984,
30263.957,,494.461,511.602,
30330.614,,493.125,509.418,
30397.262,,495.095,510.577,
30463.921,,492.761,511.462,
30530.573,,494.955,511.880,
30597.228,,496.175,512.875,
30663.876,,496.473,512.216,
30730.532,,498.317,513.253,
30797.188,,500.065,514.397,
30863.838,,499.767,513.852,
30930.493,,498.957,512.941,
30997.146,,497.912,512.076,
31063.799,,499.595,512.235,
31130.453,,497.280,513.085,
31197.107,,498.648,513.693,
31263.762,,500.323,514.331,
31330.411,,500.173,513.670,
31397.067,,501.385,512.795,
31463.718,,499.301,514.858,
31530.375,,502.040,513.505,
31597.026,,502.486,513.572,
31663.680,,501.312,512.860,
31730.333,,500.936,511.999,
31796.986,,497.610,511.237,
31863.636,,498.989,512.392,
31930.292,,499.333,513.036,
31996.950,,496.643,512.280,
32063.607,,495.117,509.989,
32130.265,,497.510,512.324,
32196.927,,496.061,511.644,
32263.582,,498.165,513.505,
32330.238,,499.707,516.636,
32396.901,,503.800,518.232,
32463.556,,506.205,519.019,
32530.211,,504.732,517.830,
32596.869,,503.409,516.432,
32663.531,,501.340,515.798,
32730.185,,501.403,514.078,
32796.845,,498.612,513.865,
32863.505,,498.787,514.871,
32930.165,,498.645,512.858,
32996.818,,496.691,512.937,
33063.477,,499.978,512.321,
33130.137,,495.993,511.615,
33196.790,,497.108,511.793,
33263.451,,494.819,510.473,
33330.107,,497.166,513.452,
33396.768,,496.914,512.444,
33463.425,,495.280,509.930,
33530.084,,495.268,509.582,
33596.740,,491.420,508.203,
33663.397,,495.592,510.538,
33730.055,,494.862,508.307,
33796.711,,492.908,508.288,
33863.370,,494.686,510.281,
33930.030,,493.280,509.355,
33996.684,,491.722,509.906,
34063.343,,491.793,509.139,
34130.002,,494.529,509.988,
34196.662,,494.718,512.764,
34263.319,,493.743,512.493,
34329.977,,491.595,512.661,
34396.631,,491.904,509.860,
34463.294,,493.347,513.123,
34529.950,,496.486,516.295,
34596.609,,499.727,518.824,
34663.260,,499.570,518.512,
34729.921,,499.435,516.655,
34796.579,,497.838,516.156,
34863.237,,495.523,512.041,
34929.894,,492.445,510.832,
34996.553,,491.307,512.132,
35063.212,,493.562,510.794,
35129.867,,494.060,511.182,
35196.528,,493.670,510.659,
35263.181,,493.781,509.301,
35329.842,,492.419,510.401,
35396.494,,492.629,509.388,
35463.151,,494.624,509.250,
35529.814,,493.678,511.059,
35596.472,,495.728,511.836,
35663.128,,498.417,511.799,
35729.785,,495.058,511.309,
35796.446,,495.341,510.319,
35863.103,,496.566,510.892,
35929.760,,494.335,508.154,
35996.415,,495.354,508.103,
36063.070,,491.856,508.410,
36129.731,,493.601,510.833,
36196.386,,496.483,511.474,
36263.043,,496.101,510.345,
36329.703,,495.724,507.602,
36396.362,,494.316,506.728,
36463.020,,489.847,506.655,
36529.673,,488.634,504.984,
36596.330,,488.808,503.121,
36662.990,,488.834,504.141,
36729.644,,487.681,504.943,
36796.302,,489.566,505.027,
36862.959,,492.789,510.650,
36929.617,,498.088,511.781,
36996.273,,497.577,511.704,
37062.936,,498.781,511.463,
37129.590,,495.685,510.943,
37196.251,,496.044,510.406,
37262.903,,496.599,511.360,
37329.562,,498.077,510.750,
37396.222,,498.388,512.997,
37462.880,,501.933,513.495,
37529.532,,500.097,512.514,
37596.188,,496.554,508.999,
37662.848,,495.184,511.671,
37729.507,,499.954,513.623,
37796.164,,501.212,513.607,
37862.817,,500.820,513.326,
37929.479,,500.893,513.380,
37996.131,,500.255,511.660,
38062.791,,499.316,511.150,
38129.447,,497.659,512.163,
38196.107,,497.618,510.071,
38262.763,,499.489,511.744,
38329.419,,497.991,511.842,
38396.075,,497.773,510.751,
38462.734,,499.251,512.234,
38529.393,,499.738,512.749,
38596.050,,501.082,511.776,
38662.708,,499.167,512.080,
38729.361,,498.489,511.154,
38796.022,,496.578,509.982,
38862.679,,498.130,510.983,
38929.336,,499.933,511.045,
38995.992,,500.640,510.886,
39062.645,,499.776,510.767,
39129.306,,498.687,510.226,
39195.961,,498.313,509.626,
39262.617,,497.081,507.453,
39329.275,,495.815,508.380,
39395.935,,494.524,507.588,
39462.589,,492.859,506.150,
39529.245,,492.610,508.387,
39595.906,,495.563,509.549,
39662.559,,496.392,508.993,
39729.220,,497.419,509.334,
39795.873,,497.732,510.894,
39862.529,,501.750,512.582,
39929.186,,502.570,513.337,
39995.846,,502.360,513.062,
40062.508,,501.462,512.258,
40129.166,,501.602,513.017,
40195.820,,500.227,511.063,
40262.481,,495.971,509.250,
40329.140,,496.682,509.473,
40395.797,,497.633,508.225,
40462.452,,493.333,509.269,
40529.113,,495.176,507.424,
40595.768,,491.725,508.706,
40662.428,,496.345,509.689,
40729.086,,493.732,507.759,
40795.748,,494.815,508.105,
40862.404,,494.271,506.822,
40929.059,,495.419,511.100,
40995.717,,498.646,512.366,
41062.376,,498.197,511.715,
41129.035,,494.614,509.696,
41195.699,,495.113,509.459,
41262.353,,491.792,507.982,
41329.010,,492.152,506.971,
41395.668,,492.502,509.377,
41462.326,,494.424,509.075,
41528.990,,491.262,506.244,
41595.642,,492.849,509.175,
41662.306,,492.959,509.305,
41728.963,,493.540,510.040,
41795.618,,492.673,511.227,
41862.274,,492.972,510.993,
41928.932,,493.661,510.174,
41995.590,,491.971,509.507,
42062.248,,493.700,509.062,
42128.913,,491.475,508.827,
42195.568,,492.791,509.719,
42262.223,,495.862,515.331,
42328.881,,498.576,514.273,
42395.542,,501.789,516.570,
42462.201,,500.534,520.802,
42528.862,,500.242,520.734,
42595.516,,500.875,517.825,
42662.178,,502.475,520.864,
42728.831,,498.054,523.070,
42795.492,,500.776,519.537,
42862.150,,496.764,521.441,
42928.809,,496.804,518.518,
42995.463,,495.663,519.077,
43062.124,,495.469,516.342,
43128.782,,494.303,518.493,
43195.436,,495.730,516.285,
43262.098,,494.029,516.509,
43328.753,,496.982,515.936,
43395.414,,493.051,514.015,
43462.068,,497.150,515.278,
43528.730,,495.193,512.059,
43595.385,,494.689,513.741,
43662.045,,497.507,513.089,
43728.704,,492.945,511.661,
43795.364,,498.598,512.923,
43862.020,,496.028,511.777,
43928.674,,494.637,512.207,
43995.335,,497.472,512.757,
44061.996,,494.182,510.637,
44128.649,,493.330,512.121,
44195.309,,494.844,510.338,
44261.969,,494.992,512.049,
44328.625,,493.982,510.963,
44395.283,,493.594,512.764,
44461.940,,494.530,512.712,
44528.601,,492.434,510.927,
44595.259,,492.630,511.186,
44661.915,,492.695,509.860,
44728.572,,491.801,509.703,
44795.230,,493.466,510.111,
44861.892,,492.395,506.263,
44928.545,,492.320,508.612,
44995.203,,492.594,508.066,
45061.865,,493.430,508.437,
45128.521,,494.290,508.917,
45195.178,,491.939,507.623,
45261.838,,493.080,507.424,
45328.497,,492.281,507.408,
45395.152,,492.458,507.693,
45461.808,,493.631,505.924,
45528.471,,489.970,508.601,
45595.129,,494.227,507.983,
45661.783,,492.340,504.678,
45728.445,,490.790,506.396,
45795.102,,493.720,507.485,
45861.759,,491.149,507.161,
45928.417,,494.101,506.642,
45995.074,,491.266,504.895,
46061.728,,491.033,504.706,
46128.388,,490.758,506.433,
46195.045,,492.303,507.196,
46261.706,,493.794,506.711,
46328.364,,491.931,503.386,
46395.020,,490.357,505.862,
46461.677,,492.247,504.304,
46528.333,,492.414,506.533,
46594.991,,491.393,505.435,
46661.655,,492.417,506.238,
46728.311,,495.528,504.757,
46794.968,,491.936,503.353,
46861.622,,489.348,501.574,
46928.285,,489.325,502.066,
46994.939,,492.405,504.638,
47061.601,,491.466,501.314,
47128.259,,490.733,503.110,
47194.914,,491.123,500.607,
47261.574,,492.867,505.139,
47328.228,,492.965,502.685,
47394.887,,490.609,501.937,
47461.544,,490.569,500.554,
47528.203,,489.008,499.470,
47594.857,,484.967,497.932,
47661.517,,485.467,502.322,
47728.174,,491.609,503.031,
47794.834,,492.727,506.145,
47861.489,,493.432,503.893,
47928.152,,491.101,502.597,
47994.809,,491.792,504.182,
48061.462,,491.371,503.955,
48128.121,,493.760,506.722,
48194.781,,494.097,504.714,
48261.440,,490.607,503.817,
48328.096,,489.594,501.029,
48394.757,,485.560,502.504,
48461.409,,490.412,504.152,
48528.072,,487.939,501.897,
48594.725,,488.727,501.419,
48661.388,,489.182,503.977,
48728.044,,491.044,503.331,
48794.699,,491.362,503.918,
48861.356,,490.438,503.462,
48928.017,,493.868,505.036,
48994.672,,490.079,501.953,
49061.333,,489.009,499.658,
49127.990,,485.062,498.893,
49194.649,,483.797,498.143,
49261.306,,483.809,502.050,
49327.960,,491.889,507.486,
49394.620,,495.573,506.809,
49461.281,,496.250,507.341,
49527.933,,496.053,508.382,
49594.596,,496.438,507.559,
49661.252,,494.505,506.933,
49727.905,,491.964,504.652,
49794.569,,493.088,505.821,
49861.221,,488.660,503.554,
49927.884,,487.800,503.744,
49994.541,,486.324,502.417,
50061.199,,485.579,500.250,
50127.852,,482.483,502.679,
50194.510,,484.413,503.866,
50261.170,,485.725,508.829,
50327.825,,489.444,507.236,
50394.486,,489.478,508.803,
50461.146,,494.033,512.061,
50527.803,,491.907,507.838,
50594.461,,487.004,505.852,
50661.115,,485.328,506.916,
50727.771,,488.695,512.318,
50794.432,,489.593,510.224,
50861.089,,493.335,514.186,
50927.743,,495.265,511.911,
50994.405,,489.318,508.862,
51061.064,,488.185,507.243,
51127.716,,483.806,505.489,
51194.376,,482.398,504.508,
51261.032,,484.770,506.375,
51327.689,,487.329,508.333,
51394.347,,485.224,503.973,
51461.004,,482.337,504.185,
51527.662,,486.035,505.699,
51594.319,,484.084,506.791,
51660.978,,484.964,503.276,
51727.635,,482.910,503.121,
51794.292,,482.271,505.389,
51860.951,,482.951,506.907,
51927.610,,485.012,504.588,
51994.265,,485.953,504.876,
52060.924,,482.547,503.580,
52127.582,,482.019,501.842,
52194.239,,481.530,503.433,
52260.897,,480.990,501.845,
52327.557,,482.343,499.578,
52394.214,,479.192,501.117,
52460.873,,479.840,498.193,
52527.529,,481.748,500.982,
52594.184,,481.693,500.951,
52660.841,,485.056,501.173,
52727.501,,481.708,499.733,
52794.161,,485.048,501.757,
52860.816,,483.479,502.866,
52927.475,,484.462,500.014,
52994.128,,479.513,500.082,
53060.787,,481.896,498.972,
53127.448,,481.610,500.704,
53194.103,,481.282,499.844,
53260.758,,482.189,501.514,
53327.418,,481.323,499.952,
53394.079,,480.625,500.491,
53460.733,,480.518,499.251,
53527.393,,482.009,498.955,
53594.051,,482.233,501.095,
53660.705,,480.897,499.166,
53727.359,,481.173,498.586,
53794.021,,479.509,496.456,
53860.680,,481.181,497.092,
53927.335,,480.488,499.522,
53993.994,,483.441,499.797,
54060.648,,481.150,498.793,
54127.304,,483.843,499.716,
54193.963,,483.239,499.608,
54260.622,,485.356,500.012,
54327.277,,482.957,500.214,
54393.938,,483.508,499.155,
54460.591,,483.771,501.432,
54527.249,,484.831,499.710,
54593.906,,486.304,501.137,
54660.563,,485.395,502.904,
54727.226,,487.527,501.346,
54793.881,,488.340,503.488,
54860.539,,487.505,502.687,
54927.195,,488.393,501.563,
54993.851,,486.992,502.754,
55060.510,,487.381,502.689,
55127.169,,489.640,503.766,
55193.828,,487.421,503.893,
55260.479,,488.386,501.181,
55327.137,,487.697,500.737,
55393.799,,486.002,501.973,
55460.452,,485.536,501.465,
55527.113,,486.437,500.569,
55593.766,,485.477,502.735,
55660.429,,488.971,502.645,
55727.080,,489.575,503.716,
55793.742,,488.913,502.898,
55860.401,,486.237,500.525,
55927.056,,485.081,500.555,
55993.712,,487.874,500.978,
56060.374,,486.182,499.809,
56127.030,,484.848,499.010,
56193.690,,480.760,496.800,
56260.343,,481.623,498.065,
56327.007,,480.407,497.482,
56393.662,,482.924,498.170,
56460.322,,481.434,498.533,
56526.977,,484.480,499.225,
56593.642,,484.100,497.935,
56660.297,,484.122,498.364,
56726.959,,482.347,498.749,
56793.615,,485.708,498.586,
56860.275,,483.229,497.340,
56926.934,,484.417,500.247,
56993.589,,485.593,500.487,
57060.249,,485.092,499.845,
57126.910,,485.476,500.591,
57193.568,,486.679,500.245,
57260.224,,485.475,499.909,
57326.881,,486.619,501.319,
57393.538,,486.033,500.972,
57460.195,,485.176,500.612,
57526.860,,486.287,501.818,
57593.514,,486.940,500.916,
57660.175,,485.549,500.861,
57726.831,,486.687,501.456,
57793.494,,485.676,501.327,
57860.150,,485.639,500.778,
57926.810,,486.830,501.623,
57993.463,,486.522,500.674,
58060.126,,485.103,501.315,
58126.780,,486.979,502.097,
58193.444,,486.030,501.489,
58260.101,,488.465,502.932,
