TimeStamp,Lights,Channel1
0.000,410,516.991
33.332,470,542.134
66.663,410,517.271
100.000,470,540.932
133.329,410,515.149
166.662,470,539.205
199.996,410,514.354
233.328,470,540.596
266.663,410,513.076
300.000,470,539.093
333.329,410,510.846
366.661,470,538.554
400.001,410,510.581
433.333,470,541.434
466.666,410,509.057
499.994,470,540.187
533.328,410,507.824
566.665,470,540.115
599.997,410,508.384
633.332,470,539.794
666.666,410,508.287
699.996,470,541.859
733.329,410,508.687
766.665,470,541.702
799.995,410,509.329
833.331,470,543.492
866.662,410,508.324
899.998,470,540.995
933.331,410,507.897
966.662,470,541.033
999.995,410,507.388
1033.327,470,540.416
1066.665,410,507.572
1099.997,470,537.283
1133.332,410,504.586
1166.664,470,536.221
1199.997,410,505.455
1233.331,470,534.588
1266.663,410,505.781
1300.000,470,533.860
1333.331,410,504.737
1366.666,470,533.150
1399.996,410,504.552
1433.333,470,531.967
1466.663,410,501.641
1499.998,470,529.868
1533.332,410,501.749
1566.663,470,527.628
1600.001,410,496.669
1633.328,470,527.025
1666.668,410,498.686
1699.997,470,527.655
1733.330,410,498.268
1766.662,470,527.500
1799.995,410,499.612
1833.333,470,525.572
1866.667,410,497.309
1899.998,470,524.671
1933.329,410,498.727
1966.662,470,524.628
1999.996,410,499.475
2033.328,470,524.975
2066.664,410,499.640
2099.999,470,525.443
2133.333,410,501.318
2166.662,470,525.471
2199.996,410,500.195
2233.331,470,524.586
2266.662,410,500.180
2299.998,470,525.201
2333.329,410,501.693
2366.663,470,524.824
2399.998,410,500.510
2433.334,470,525.224
2466.667,410,501.400
2499.998,470,526.660
2533.333,410,501.123
2566.665,470,525.154
2599.995,410,499.036
2633.332,470,527.319
2666.663,410,502.309
2699.995,470,527.820
2733.328,410,503.266
2766.667,470,529.510
2799.996,410,504.170
2833.330,470,530.747
2866.664,410,504.284
2900.000,470,529.927
2933.333,410,504.515
2966.665,470,529.037
2999.999,410,504.265
3033.334,470,528.790
3066.662,410,503.788
3099.998,470,526.651
3133.328,410,502.831
3166.661,470,526.738
3200.000,410,501.724
3233.334,470,522.017
3266.666,410,498.268
3300.000,470,522.711
3333.330,410,498.395
3366.666,470,521.094
3399.998,410,500.390
3433.331,470,524.068
3466.667,410,502.028
3499.995,470,523.565
3533.331,410,502.398
3566.667,470,525.014
3599.996,410,502.797
3633.329,470,523.913
3666.667,410,502.307
3700.000,470,523.558
3733.329,410,502.733
3766.666,470,524.052
3799.994,410,503.376
3833.332,470,523.571
3866.662,410,502.731
3899.999,470,523.495
3933.328,410,504.338
3966.664,470,525.243
4000.000,410,506.573
4033.330,470,526.666
4066.663,410,503.274
4099.997,470,524.289
4133.327,410,505.607
4166.666,470,524.340
4199.999,410,501.656
4233.329,470,523.855
4266.661,410,502.999
4300.001,470,524.218
4333.333,410,502.600
4366.664,470,524.726
4400.000,410,503.126
4433.334,470,524.651
4466.664,410,504.201
4499.999,470,523.688
4533.334,410,503.168
4566.661,470,523.810
4599.996,410,503.532
4633.334,470,521.576
4666.664,410,499.866
4699.995,470,521.243
4733.329,410,499.524
4766.662,470,519.720
4800.000,410,500.724
4833.328,470,522.181
4866.661,410,500.463
4900.001,470,521.960
4933.330,410,503.081
4966.662,470,522.288
4999.996,410,501.221
5033.333,470,522.293
5066.667,410,501.722
5099.995,470,522.883
5133.332,410,501.875
5166.665,470,521.789
5199.995,410,502.167
5233.331,470,521.352
5266.667,410,502.377
5299.994,470,522.176
5333.333,410,501.390
5366.662,470,522.345
5399.999,410,502.565
5433.334,470,523.269
5466.662,410,504.361
5499.997,470,525.798
5533.328,410,505.095
5566.663,470,526.924
5599.999,410,506.467
5633.330,470,527.880
5666.666,410,507.781
5699.995,470,528.481
5733.330,410,508.710
5766.662,470,527.754
5799.997,410,504.696
5833.330,470,523.736
5866.661,410,502.152
5899.998,470,522.345
5933.333,410,500.158
5966.661,470,522.813
5999.999,410,504.119
6033.327,470,522.752
6066.665,410,504.481
6100.000,470,522.307
6133.328,410,501.454
6166.663,470,520.449
6200.001,410,502.224
6233.334,470,523.651
6266.666,410,505.038
6299.994,470,524.174
6333.329,410,505.506
6366.665,470,521.736
6399.996,410,501.556
6433.328,470,522.198
6466.668,410,505.901
6499.999,470,524.582
6533.329,410,505.834
6566.666,470,524.948
6599.994,410,504.245
6633.328,470,524.830
6666.662,410,505.499
6699.997,470,525.096
6733.330,410,503.902
6766.662,470,523.481
6799.996,410,504.168
6833.331,470,523.092
6866.663,410,503.423
6899.996,470,521.091
6933.330,410,499.476
6966.666,470,519.731
6999.996,410,499.441
7033.331,470,518.966
7066.662,410,499.767
7099.996,470,519.557
7133.332,410,501.177
7166.665,470,520.247
7199.996,410,503.177
7233.330,470,522.504
7266.666,410,502.959
7300.000,470,521.963
7333.328,410,501.228
7366.664,470,521.766
7399.998,410,500.627
7433.334,470,522.806
7466.665,410,505.156
7499.996,470,524.253
7533.331,410,507.377
7566.664,470,523.564
7600.001,410,504.931
7633.329,470,522.909
7666.665,410,506.275
7699.999,470,524.711
7733.329,410,507.537
7766.661,470,520.796
7799.995,410,501.673
7833.331,470,521.860
7866.666,410,505.291
7899.995,470,523.428
7933.332,410,504.966
7966.665,470,525.017
7999.995,410,507.753
8033.331,470,527.276
8066.661,410,511.175
8099.995,470,528.781
8133.332,410,507.608
8166.666,470,524.977
8200.001,410,503.538
8233.333,470,524.056
8266.666,410,502.604
8299.999,470,519.867
8333.330,410,498.127
8366.666,470,518.957
8399.999,410,496.283
8433.332,470,517.466
8466.665,410,496.737
8499.997,470,516.752
8533.333,410,496.587
8566.661,470,520.276
8599.997,410,500.451
8633.334,470,521.929
8666.665,410,502.498
8699.998,470,524.489
8733.333,410,501.151
8766.662,470,523.704
8799.997,410,504.407
8833.333,470,525.196
8866.666,410,497.501
8899.997,470,523.097
8933.332,410,497.886
8966.665,470,519.815
8999.998,410,495.937
9033.333,470,519.713
9066.666,410,493.348
9099.999,470,519.636
9133.331,410,495.330
9166.665,470,519.089
9199.997,410,495.356
9233.327,470,518.923
9266.661,410,493.648
9299.995,470,518.118
9333.333,410,492.299
9366.666,470,517.773
9400.000,410,493.081
9433.332,470,518.030
9466.661,410,494.079
9499.997,470,518.157
9533.333,410,495.487
9566.662,470,520.267
9599.995,410,493.918
9633.330,470,520.770
9666.665,410,495.872
9699.997,470,519.114
9733.334,410,497.995
9766.666,470,523.608
9799.997,410,503.682
9833.329,470,526.291
9866.661,410,504.112
9899.996,470,525.925
9933.334,410,503.363
9966.665,470,525.281
9999.997,410,503.619
10033.329,470,525.752
10066.665,410,504.091
10099.996,470,524.882
10133.328,410,504.166
10166.665,470,524.771
10199.996,410,504.147
10233.333,470,525.131
10266.662,410,502.087
10299.995,470,523.412
10333.328,410,501.257
10366.662,470,522.396
10399.999,410,501.967
10433.333,470,521.364
10466.663,410,499.704
10500.000,470,520.470
10533.327,410,500.234
10566.662,470,519.257
10599.997,410,499.086
10633.334,470,521.743
10666.666,410,500.301
10699.998,470,520.260
10733.329,410,499.772
10766.665,470,520.866
10799.996,410,502.308
10833.333,470,520.583
10866.663,410,500.271
10899.999,470,519.627
10933.332,410,500.225
10966.667,470,520.753
10999.998,410,500.649
11033.334,470,520.106
11066.664,410,500.106
11099.998,470,519.835
11133.334,410,499.881
11166.664,470,520.020
11199.998,410,501.336
11233.333,470,520.048
11266.666,410,499.965
11299.996,470,521.009
11333.330,410,501.315
11366.661,470,521.401
11399.999,410,499.090
11433.328,470,521.910
11466.668,410,502.744
11499.994,470,522.656
11533.333,410,501.209
11566.667,470,521.647
11599.998,410,501.561
11633.332,470,521.991
11666.661,410,500.113
11699.995,470,520.134
11733.334,410,499.723
11766.667,470,520.997
11799.995,410,499.325
11833.329,470,519.334
11866.664,410,498.982
11899.995,470,519.686
11933.334,410,499.799
11966.667,470,517.962
11999.994,410,495.433
12033.332,470,518.407
12066.661,410,499.429
12099.998,470,519.541
12133.332,410,499.841
12166.661,470,520.927
12199.997,410,501.389
12233.334,470,520.700
12266.666,410,500.152
12299.995,470,519.018
12333.331,410,496.844
12366.667,470,518.923
12400.000,410,498.098
12433.329,470,517.290
12466.661,410,495.912
12500.001,470,518.705
12533.329,410,497.882
12566.661,470,518.827
12599.996,410,500.415
12633.328,470,518.935
12666.666,410,497.458
12700.001,470,517.181
12733.334,410,498.157
12766.662,470,517.511
12800.000,410,495.487
12833.333,470,519.257
12866.666,410,498.897
12899.998,470,519.558
12933.332,410,501.508
12966.666,470,521.144
12999.997,410,500.981
13033.328,470,519.805
13066.667,410,501.768
13099.998,470,521.269
13133.327,410,501.589
13166.661,470,519.943
13200.000,410,500.853
13233.331,470,520.756
13266.664,410,502.314
13300.001,470,519.664
13333.330,410,502.052
13366.661,470,519.296
13399.997,410,503.994
13433.333,470,521.720
13466.661,410,503.670
13500.000,470,521.212
13533.331,410,503.534
13566.666,470,519.510
13599.998,410,501.613
13633.329,470,520.619
13666.667,410,505.128
13699.996,470,519.554
13733.332,410,500.665
13766.662,470,517.182
13799.995,410,500.760
13833.328,470,517.034
13866.666,410,498.452
13899.996,470,515.658
13933.330,410,499.477
13966.667,470,516.499
13999.998,410,499.482
14033.333,470,515.740
14066.664,410,499.700
14100.000,470,515.587
14133.329,410,500.107
14166.663,470,516.352
14199.996,410,499.861
14233.330,470,515.556
14266.664,410,498.997
14299.999,470,516.099
14333.332,410,501.076
14366.664,470,515.907
14399.997,410,499.830
14433.333,470,515.436
14466.662,410,499.299
14499.999,470,516.159
14533.332,410,500.375
14566.661,470,516.334
14599.997,410,499.319
14633.334,470,515.523
14666.664,410,498.943
14699.998,470,516.313
14733.330,410,500.075
14766.665,470,516.448
14799.994,410,498.651
14833.328,470,516.317
14866.661,410,498.146
14899.996,470,517.093
14933.330,410,499.077
14966.661,470,517.365
14999.998,410,498.416
15033.328,470,516.611
15066.665,410,499.828
15099.995,470,517.812
15133.330,410,500.001
15166.665,470,517.473
15199.998,410,500.983
15233.331,470,520.218
15266.664,410,499.647
15300.001,470,518.254
15333.329,410,500.159
15366.661,470,518.430
15399.995,410,500.323
15433.332,470,518.765
15466.668,410,499.425
15499.998,470,517.988
15533.334,410,499.359
15566.664,470,518.513
15599.999,410,500.173
15633.329,470,519.444
15666.662,410,500.526
15700.001,470,517.755
15733.331,410,498.040
15766.662,470,516.722
15799.995,410,498.025
15833.334,470,513.800
15866.664,410,496.092
15899.996,470,514.377
15933.332,410,494.814
15966.667,470,513.007
15999.991,410,494.668
16033.319,470,514.761
16066.648,410,495.784
16099.981,470,513.700
16133.301,410,495.856
16166.635,470,513.751
16199.961,410,497.567
16233.292,470,514.804
16266.619,410,496.602
16299.952,470,514.238
16333.277,410,495.978
16366.613,470,514.558
16399.933,410,497.009
16433.268,470,513.306
16466.587,410,495.264
16499.922,470,513.450
16533.248,410,495.238
16566.585,470,512.432
16599.904,410,495.043
16633.243,470,514.051
16666.562,410,497.494
16699.895,470,514.901
16733.216,410,498.280
16766.552,470,514.456
16799.876,410,498.033
16833.211,470,515.496
16866.533,410,499.045
16899.871,470,514.549
16933.186,410,497.236
16966.523,470,514.248
16999.841,410,499.024
17033.179,470,516.140
17066.502,410,498.004
17099.838,470,515.825
17133.155,410,497.702
17166.493,470,515.515
17199.813,410,498.327
17233.148,470,516.484
17266.466,410,498.323
17299.806,470,516.177
17333.126,410,497.569
17366.463,470,516.520
17399.783,410,498.465
17433.123,470,518.278
17466.438,410,498.533
17499.779,470,520.104
17533.096,410,502.527
17566.436,470,520.246
17599.751,410,499.404
17633.090,470,519.029
17666.406,410,503.199
17699.749,470,521.767
17733.061,410,503.224
17766.403,470,519.808
17799.714,410,501.840
17833.058,470,518.826
17866.370,410,500.248
17899.712,470,516.303
17933.026,410,497.677
17966.366,470,515.058
17999.684,410,497.780
18033.023,470,514.041
18066.336,410,495.093
18099.681,470,512.280
18132.994,410,496.831
18166.333,470,514.114
18199.652,410,497.575
18232.989,470,513.633
18266.302,410,496.595
18299.650,470,514.421
18332.956,410,498.687
18366.301,470,513.729
18399.615,410,497.504
18432.960,470,513.323
18466.270,410,497.715
18499.614,470,515.268
18532.922,410,497.597
18566.265,470,516.082
18599.575,410,497.382
18632.923,470,517.429
18666.233,410,497.999
18699.580,470,518.552
18732.884,410,498.808
18766.235,470,517.930
18799.541,410,498.144
18832.889,470,517.950
18866.198,410,498.161
18899.544,470,517.404
18932.852,410,499.126
18966.195,470,519.700
18999.503,410,499.116
19032.853,470,517.739
19066.157,410,503.214
19099.504,470,521.100
19132.812,410,504.139
19166.159,470,519.523
19199.470,410,501.635
19232.813,470,517.069
19266.123,410,498.838
19299.469,470,513.867
19332.772,410,494.235
19366.126,470,512.185
19399.427,410,495.704
19432.776,470,513.275
19466.085,410,497.065
19499.435,470,512.976
19532.737,410,497.812
19566.090,470,514.656
19599.389,410,497.238
19632.743,470,512.717
19666.044,410,495.870
19699.393,470,514.072
19732.698,410,498.539
19766.051,470,514.252
19799.347,410,498.340
19832.701,470,513.106
19866.002,410,496.937
19899.352,470,513.051
19932.655,410,498.361
19966.008,470,513.925
19999.311,410,496.929
20032.662,470,512.986
20065.962,410,497.095
20099.317,470,513.777
20132.615,410,496.527
20165.970,470,511.891
20199.265,410,496.547
20232.620,470,513.781
20265.922,410,496.787
20299.273,470,513.431
20332.575,410,496.386
20365.932,470,513.995
20399.227,410,498.378
20432.585,470,514.718
20465.877,410,497.841
20499.238,470,514.640
20532.532,410,497.757
20565.887,470,515.862
20599.181,410,497.895
20632.541,470,515.243
20665.837,410,497.008
20699.195,470,515.676
20732.486,410,497.393
20765.848,470,516.320
20799.139,410,497.123
20832.501,470,517.167
20865.794,410,498.328
20899.154,470,517.193
20932.443,410,499.638
20965.807,470,517.672
20999.093,410,500.180
21032.456,470,515.876
21065.752,410,500.507
21099.107,470,516.411
21132.402,410,500.183
21165.763,470,516.613
21199.050,410,500.662
21232.412,470,517.824
21265.702,410,501.277
21299.063,470,516.464
21332.355,410,498.478
21365.715,470,513.979
21399.010,410,496.282
21432.373,470,509.886
21465.658,410,493.870
21499.021,470,509.511
21532.313,410,490.601
21565.676,470,508.391
21598.964,410,492.466
21632.325,470,509.475
21665.611,410,494.346
21698.977,470,509.796
21732.264,410,495.757
21765.629,470,511.682
21798.913,410,496.015
21832.281,470,511.219
21865.563,410,495.327
21898.934,470,510.889
21932.214,410,495.468
21965.580,470,512.356
21998.871,410,496.121
22032.233,470,511.246
22065.515,410,495.102
22098.888,470,510.969
22132.169,410,495.850
22165.537,470,512.213
22198.817,410,496.242
22232.189,470,512.093
22265.468,410,495.357
22298.838,470,512.073
22332.121,410,494.651
22365.493,470,513.370
22398.775,410,496.461
22432.143,470,512.827
22465.420,410,495.663
22498.791,470,512.087
22532.073,410,494.926
22565.441,470,512.709
22598.722,410,496.345
22632.095,470,513.017
22665.370,410,497.411
22698.746,470,515.486
22732.025,410,497.580
22765.395,470,514.927
22798.670,410,499.301
22832.043,470,516.342
22865.320,410,500.805
22898.693,470,517.027
22931.969,410,500.455
22965.343,470,517.713
22998.619,410,500.100
23031.996,470,516.353
23065.270,410,498.138
23098.647,470,514.361
23131.921,410,497.885
23165.293,470,513.593
23198.571,410,496.924
23231.947,470,513.364
23265.221,410,496.774
23298.593,470,512.776
23331.867,410,495.392
23365.248,470,511.751
23398.517,410,495.952
23431.893,470,513.112
23465.168,410,495.948
23498.542,470,510.425
23531.814,410,494.020
23565.196,470,511.230
23598.463,410,494.615
23631.842,470,509.691
23665.115,410,492.481
23698.496,470,510.046
23731.762,410,493.504
23765.140,470,508.039
23798.413,410,490.396
23831.794,470,509.246
23865.060,410,493.842
23898.439,470,510.463
23931.712,410,493.758
23965.093,470,511.530
23998.365,410,497.133
24031.751,470,510.888
24065.022,410,495.938
24098.408,470,511.009
24131.683,410,496.368
24165.065,470,512.325
24198.336,410,496.807
24231.719,470,511.069
24264.995,410,496.136
24298.379,470,512.488
24331.651,410,497.607
24365.038,470,512.458
24398.304,410,498.409
24431.694,470,513.746
24464.962,410,496.577
24498.350,470,513.574
24531.616,410,496.347
24565.005,470,512.960
24598.275,410,494.976
24631.662,470,512.210
24664.932,410,495.770
24698.320,470,512.064
24731.587,410,495.695
24764.974,470,509.913
24798.242,410,495.781
24831.636,470,510.950
24864.903,410,494.594
24898.293,470,509.490
24931.555,410,492.264
24964.947,470,509.958
24998.210,410,491.063
25031.606,470,507.307
25064.869,410,494.183
25098.263,470,510.198
25131.529,410,496.875
25164.917,470,510.998
25198.182,410,495.885
25231.574,470,510.824
25264.840,410,495.521
25298.233,470,509.968
25331.492,410,495.764
25364.887,470,510.976
25398.148,410,495.915
25431.544,470,511.022
25464.806,410,495.104
25498.198,470,510.783
25531.462,410,495.853
25564.856,470,511.524
25598.114,410,495.533
25631.517,470,512.650
25664.776,410,496.847
25698.173,470,513.592
25731.430,410,496.157
25764.824,470,513.274
25798.084,410,495.387
25831.486,470,512.930
25864.742,410,494.424
25898.141,470,511.405
25931.398,410,492.742
25964.797,470,513.749
25998.055,410,497.306
26031.452,470,516.640
26064.711,410,500.814
26098.107,470,518.410
26131.367,410,498.463
26164.767,470,517.219
26198.021,410,499.368
26231.423,470,518.300
26264.672,410,498.805
26298.079,470,516.904
26331.333,410,497.376
26364.737,470,518.005
26397.989,410,497.008
26431.389,470,517.237
26464.644,410,497.360
26498.047,470,517.156
26531.295,410,497.541
26564.700,470,517.758
26597.956,410,495.999
26631.357,470,517.694
26664.611,410,496.499
26698.016,470,517.400
26731.261,410,494.670
26764.674,470,517.311
26797.917,410,498.242
26831.330,470,516.870
26864.577,410,497.523
26897.984,470,515.758
26931.231,410,497.570
26964.638,470,515.197
26997.883,410,496.336
27031.294,470,514.382
27064.541,410,496.247
27097.953,470,511.622
27131.197,410,492.568
27164.604,470,512.612
27197.848,410,492.956
27231.261,470,509.012
27264.505,410,492.485
27297.918,470,511.495
27331.161,410,493.724
27364.573,470,510.815
27397.815,410,493.431
27431.231,470,512.321
27464.473,410,493.198
27497.887,470,511.772
27531.124,410,492.835
27564.545,470,511.906
27597.783,410,495.512
27631.198,470,511.566
27664.440,410,494.421
27697.850,470,511.888
27731.093,410,496.185
27764.507,470,514.081
27797.744,410,494.803
27831.165,470,513.860
27864.400,410,495.538
27897.823,470,515.066
27931.054,410,493.246
27964.474,470,513.041
27997.713,410,495.226
28031.131,470,514.567
28064.368,410,495.108
28097.785,470,513.325
28131.021,410,495.641
28164.440,470,513.973
28197.673,410,496.565
28231.095,470,512.949
28264.330,410,494.290
28297.752,470,511.878
28330.988,410,495.505
28364.408,470,511.535
28397.641,410,494.672
28431.066,470,511.010
28464.296,410,494.806
28497.716,470,511.799
28530.951,410,494.878
28564.372,470,510.979
28597.601,410,494.561
28631.027,470,511.562
28664.256,410,496.636
28697.687,470,512.280
28730.913,410,494.523
28764.342,470,511.598
28797.565,410,495.368
28830.992,470,510.990
28864.223,410,494.187
28897.650,470,510.558
28930.876,410,497.371
28964.307,470,512.427
28997.527,410,498.461
29030.962,470,513.729
29064.186,410,498.130
29097.616,470,512.989
29130.838,410,498.738
29164.271,470,513.963
29197.492,410,499.389
29230.926,470,515.124
29264.145,410,501.156
29297.579,470,516.141
29330.798,410,500.719
29364.237,470,516.023
29397.454,410,502.560
29430.892,470,515.648
29464.112,410,499.775
29497.544,470,515.783
29530.766,410,499.925
29564.202,470,516.508
29597.416,410,498.651
29630.855,470,515.163
29664.074,410,497.963
29697.510,470,515.170
29730.728,410,498.353
29764.164,470,515.329
29797.383,410,496.061
29830.819,470,516.247
29864.033,410,497.581
29897.472,470,514.811
29930.690,410,499.514
29964.133,470,513.566
29997.339,410,497.531
30030.788,470,513.224
30063.993,410,496.465
30097.436,470,512.922
30130.652,410,496.088
30164.096,470,512.449
30197.305,410,496.923
30230.749,470,511.984
30263.957,410,494.461
30297.405,470,511.602
30330.614,410,493.125
30364.057,470,509.418
30397.262,410,495.095
30430.711,470,510.577
30463.921,410,492.761
30497.365,470,511.462
30530.573,410,494.955
30564.024,470,511.880
30597.228,410,496.175
30630.679,470,512.875
30663.876,410,496.473
30697.330,470,512.216
30730.532,410,498.317
30763.985,470,513.253
30797.188,410,500.065
30830.641,470,514.397
30863.838,410,499.767
30897.294,470,513.852
30930.493,410,498.957
30963.949,470,512.941
30997.146,410,497.912
31030.601,470,512.076
31063.799,410,499.595
31097.253,470,512.235
31130.453,410,497.280
31163.909,470,513.085
31197.107,410,498.648
31230.562,470,513.693
31263.762,410,500.323
31297.217,470,514.331
31330.411,410,500.173
31363.875,470,513.670
31397.067,410,501.385
31430.523,470,512.795
31463.718,410,499.301
31497.180,470,514.858
31530.375,410,502.040
31563.835,470,513.505
31597.026,410,502.486
31630.486,470,513.572
31663.680,410,501.312
31697.144,470,512.860
31730.333,410,500.936
31763.799,470,511.999
31796.986,410,497.610
31830.448,470,511.237
31863.636,410,498.989
31897.103,470,512.392
31930.292,410,499.333
31963.762,470,513.036
31996.950,410,496.643
32030.417,470,512.280
32063.607,410,495.117
32097.072,470,509.989
32130.265,410,497.510
32163.732,470,512.324
32196.927,410,496.061
32230.392,470,511.644
32263.582,410,498.165
32297.048,470,513.505
32330.238,410,499.707
32363.703,470,516.636
32396.901,410,503.800
32430.362,470,518.232
32463.556,410,506.205
32497.017,470,519.019
32530.211,410,504.732
32563.677,470,517.830
32596.869,410,503.409
32630.336,470,516.432
32663.531,410,501.340
32696.990,470,515.798
32730.185,410,501.403
32763.650,470,514.078
32796.845,410,498.612
32830.309,470,513.865
32863.505,410,498.787
32896.963,470,514.871
32930.165,410,498.645
32963.622,470,512.858
32996.818,410,496.691
33030.279,470,512.937
33063.477,410,499.978
33096.940,470,512.321
33130.137,410,495.993
33163.594,470,511.615
33196.790,410,497.108
33230.249,470,511.793
33263.451,410,494.819
33296.910,470,510.473
33330.107,410,497.166
33363.564,470,513.452
33396.768,410,496.914
33430.224,470,512.444
33463.425,410,495.280
33496.881,470,509.930
33530.084,410,495.268
33563.539,470,509.582
33596.740,410,491.420
33630.197,470,508.203
33663.397,410,495.592
33696.857,470,510.538
33730.055,410,494.862
33763.512,470,508.307
33796.711,410,492.908
33830.168,470,508.288
33863.370,410,494.686
33896.824,470,510.281
33930.030,410,493.280
33963.482,470,509.355
33996.684,410,491.722
34030.141,470,509.906
34063.343,410,491.793
34096.797,470,509.139
34130.002,410,494.529
34163.456,470,509.988
34196.662,410,494.718
34230.111,470,512.764
34263.319,410,493.743
34296.768,470,512.493
34329.977,410,491.595
34363.428,470,512.661
34396.631,410,491.904
34430.085,470,509.860
34463.294,410,493.347
34496.740,470,513.123
34529.950,410,496.486
34563.399,470,516.295
34596.609,410,499.727
34630.055,470,518.824
34663.260,410,499.570
34696.712,470,518.512
34729.921,410,499.435
34763.373,470,516.655
34796.579,410,497.838
34830.029,470,516.156
34863.237,410,495.523
34896.684,470,512.041
34929.894,410,492.445
34963.338,470,510.832
34996.553,410,491.307
35030.002,470,512.132
35063.212,410,493.562
35096.656,470,510.794
35129.867,410,494.060
35163.316,470,511.182
35196.528,410,493.670
35229.967,470,510.659
35263.181,410,493.781
35296.624,470,509.301
35329.842,410,492.419
35363.284,470,510.401
35396.494,410,492.629
35429.940,470,509.388
35463.151,410,494.624
35496.600,470,509.250
35529.814,410,493.678
35563.255,470,511.059
35596.472,410,495.728
35629.910,470,511.836
35663.128,410,498.417
35696.572,470,511.799
35729.785,410,495.058
35763.225,470,511.309
35796.446,410,495.341
35829.881,470,510.319
35863.103,410,496.566
35896.542,470,510.892
35929.760,410,494.335
35963.197,470,508.154
35996.415,410,495.354
36029.852,470,508.103
36063.070,410,491.856
36096.509,470,508.410
36129.731,410,493.601
36163.165,470,510.833
36196.386,410,496.483
36229.825,470,511.474
36263.043,410,496.101
36296.479,470,510.345
36329.703,410,495.724
36363.139,470,507.602
36396.362,410,494.316
36429.798,470,506.728
36463.020,410,489.847
36496.453,470,506.655
36529.673,410,488.634
36563.106,470,504.984
36596.330,410,488.808
36629.763,470,503.121
36662.990,410,488.834
36696.424,470,504.141
36729.644,410,487.681
36763.079,470,504.943
36796.302,410,489.566
36829.733,470,505.027
36862.959,410,492.789
36896.391,470,510.650
36929.617,410,498.088
36963.049,470,511.781
36996.273,410,497.577
37029.704,470,511.704
37062.936,410,498.781
37096.361,470,511.463
37129.590,410,495.685
37163.022,470,510.943
37196.251,410,496.044
37229.677,470,510.406
37262.903,410,496.599
37296.332,470,511.360
37329.562,410,498.077
37362.990,470,510.750
37396.222,410,498.388
37429.644,470,512.997
37462.880,410,501.933
37496.302,470,513.495
37529.532,410,500.097
37562.957,470,512.514
37596.188,410,496.554
37629.616,470,508.999
37662.848,410,495.184
37696.275,470,511.671
37729.507,410,499.954
37762.932,470,513.623
37796.164,410,501.212
37829.585,470,513.607
37862.817,410,500.820
37896.245,470,513.326
37929.479,410,500.893
37962.900,470,513.380
37996.131,410,500.255
38029.557,470,511.660
38062.791,410,499.316
38096.213,470,511.150
38129.447,410,497.659
38162.871,470,512.163
38196.107,410,497.618
38229.527,470,510.071
38262.763,410,499.489
38296.179,470,511.744
38329.419,410,497.991
38362.837,470,511.842
38396.075,410,497.773
38429.494,470,510.751
38462.734,410,499.251
38496.149,470,512.234
38529.393,410,499.738
38562.807,470,512.749
38596.050,410,501.082
38629.468,470,511.776
38662.708,410,499.167
38696.122,470,512.080
38729.361,410,498.489
38762.778,470,511.154
38796.022,410,496.578
38829.433,470,509.982
38862.679,410,498.130
38896.093,470,510.983
38929.336,410,499.933
38962.744,470,511.045
38995.992,410,500.640
39029.404,470,510.886
39062.645,410,499.776
39096.057,470,510.767
39129.306,410,498.687
39162.717,470,510.226
39195.961,410,498.313
39229.373,470,509.626
39262.617,410,497.081
39296.025,470,507.453
39329.275,410,495.815
39362.687,470,508.380
39395.935,410,494.524
39429.342,470,507.588
39462.589,410,492.859
39495.994,470,506.150
39529.245,410,492.610
39562.652,470,508.387
39595.906,410,495.563
39629.313,470,509.549
39662.559,410,496.392
39695.969,470,508.993
39729.220,410,497.419
39762.619,470,509.334
39795.873,410,497.732
39829.280,470,510.894
39862.529,410,501.750
39895.933,470,512.582
39929.186,410,502.570
39962.589,470,513.337
39995.846,410,502.360
40029.246,470,513.062
40062.508,410,501.462
40095.910,470,512.258
40129.166,410,501.602
40162.568,470,513.017
40195.820,410,500.227
40229.224,470,511.063
40262.481,410,495.971
40295.879,470,509.250
40329.140,410,496.682
40362.540,470,509.473
40395.797,410,497.633
40429.196,470,508.225
40462.452,410,493.333
40495.858,470,509.269
40529.113,410,495.176
40562.516,470,507.424
40595.768,410,491.725
40629.176,470,508.706
40662.428,410,496.345
40695.833,470,509.689
40729.086,410,493.732
40762.488,470,507.759
40795.748,410,494.815
40829.145,470,508.105
40862.404,410,494.271
40895.806,470,506.822
40929.059,410,495.419
40962.465,470,511.100
40995.717,410,498.646
41029.125,470,512.366
41062.376,410,498.197
41095.778,470,511.715
41129.035,410,494.614
41162.436,470,509.696
41195.699,410,495.113
41229.095,470,509.459
41262.353,410,491.792
41295.757,470,507.982
41329.010,410,492.152
41362.410,470,506.971
41395.668,410,492.502
41429.072,470,509.377
41462.326,410,494.424
41495.731,470,509.075
41528.990,410,491.262
41562.388,470,506.244
41595.642,410,492.849
41629.044,470,509.175
41662.306,410,492.959
41695.706,470,509.305
41728.963,410,493.540
41762.360,470,510.040
41795.618,410,492.673
41829.022,470,511.227
41862.274,410,492.972
41895.674,470,510.993
41928.932,410,493.661
41962.334,470,510.174
41995.590,410,491.971
42028.992,470,509.507
42062.248,410,493.700
42095.649,470,509.062
42128.913,410,491.475
42162.310,470,508.827
42195.568,410,492.791
42228.968,470,509.719
42262.223,410,495.862
42295.624,470,515.331
42328.881,410,498.576
42362.284,470,514.273
42395.542,410,501.789
42428.945,470,516.570
42462.201,410,500.534
42495.599,470,520.802
42528.862,410,500.242
42562.259,470,520.734
42595.516,410,500.875
42628.919,470,517.825
42662.178,410,502.475
42695.571,470,520.864
42728.831,410,498.054
42762.233,470,523.070
42795.492,410,500.776
42828.893,470,519.537
42862.150,410,496.764
42895.549,470,521.441
42928.809,410,496.804
42962.206,470,518.518
42995.463,410,495.663
43028.866,470,519.077
43062.124,410,495.469
43095.521,470,516.342
43128.782,410,494.303
43162.184,470,518.493
43195.436,410,495.730
43228.836,470,516.285
43262.098,410,494.029
43295.494,470,516.509
43328.753,410,496.982
43362.152,470,515.936
43395.414,410,493.051
43428.814,470,514.015
43462.068,410,497.150
43495.473,470,515.278
43528.730,410,495.193
43562.127,470,512.059
43595.385,410,494.689
43628.787,470,513.741
43662.045,410,497.507
43695.443,470,513.089
43728.704,410,492.945
43762.105,470,511.661
43795.364,410,498.598
43828.762,470,512.923
43862.020,410,496.028
43895.416,470,511.777
43928.674,410,494.637
43962.078,470,512.207
43995.335,410,497.472
44028.736,470,512.757
44061.996,410,494.182
44095.391,470,510.637
44128.649,410,493.330
44162.053,470,512.121
44195.309,410,494.844
44228.706,470,510.338
44261.969,410,494.992
44295.366,470,512.049
44328.625,410,493.982
44362.021,470,510.963
44395.283,410,493.594
44428.678,470,512.764
44461.940,410,494.530
44495.340,470,512.712
44528.601,410,492.434
44561.997,470,510.927
44595.259,410,492.630
44628.658,470,511.186
44661.915,410,492.695
44695.316,470,509.860
44728.572,410,491.801
44761.969,470,509.703
44795.230,410,493.466
44828.630,470,510.111
44861.892,410,492.395
44895.283,470,506.263
44928.545,410,492.320
44961.947,470,508.612
44995.203,410,492.594
45028.601,470,508.066
45061.865,410,493.430
45095.259,470,508.437
45128.521,410,494.290
45161.920,470,508.917
45195.178,410,491.939
45228.574,470,507.623
45261.838,410,493.080
45295.232,470,507.424
45328.497,410,492.281
45361.893,470,507.408
45395.152,410,492.458
45428.550,470,507.693
45461.808,410,493.631
45495.210,470,505.924
45528.471,410,489.970
45561.861,470,508.601
45595.129,410,494.227
45628.522,470,507.983
45661.783,410,492.340
45695.183,470,504.678
45728.445,410,490.790
45761.836,470,506.396
45795.102,410,493.720
45828.493,470,507.485
45861.759,410,491.149
45895.155,470,507.161
45928.417,410,494.101
45961.813,470,506.642
45995.074,410,491.266
46028.465,470,504.895
46061.728,410,491.033
46095.129,470,504.706
46128.388,410,490.758
46161.782,470,506.433
46195.045,410,492.303
46228.442,470,507.196
46261.706,410,493.794
46295.101,470,506.711
46328.364,410,491.931
46361.760,470,503.386
46395.020,410,490.357
46428.418,470,505.862
46461.677,410,492.247
46495.072,470,504.304
46528.333,410,492.414
46561.730,470,506.533
46594.991,410,491.393
46628.385,470,505.435
46661.655,410,492.417
46695.045,470,506.238
46728.311,410,495.528
46761.702,470,504.757
46794.968,410,491.936
46828.365,470,503.353
46861.622,410,489.348
46895.017,470,501.574
46928.285,410,489.325
46961.677,470,502.066
46994.939,410,492.405
47028.338,470,504.638
47061.601,410,491.466
47094.995,470,501.314
47128.259,410,490.733
47161.652,470,503.110
47194.914,410,491.123
47228.308,470,500.607
47261.574,410,492.867
47294.965,470,505.139
47328.228,410,492.965
47361.621,470,502.685
47394.887,410,490.609
47428.278,470,501.937
47461.544,410,490.569
47494.940,470,500.554
47528.203,410,489.008
47561.596,470,499.470
47594.857,410,484.967
47628.255,470,497.932
47661.517,410,485.467
47694.911,470,502.322
47728.174,410,491.609
47761.570,470,503.031
47794.834,410,492.727
47828.228,470,506.145
47861.489,410,493.432
47894.882,470,503.893
47928.152,410,491.101
47961.541,470,502.597
47994.809,410,491.792
48028.198,470,504.182
48061.462,410,491.371
48094.854,470,503.955
48128.121,410,493.760
48161.516,470,506.722
48194.781,410,494.097
48228.174,470,504.714
48261.440,410,490.607
48294.827,470,503.817
48328.096,410,489.594
48361.485,470,501.029
48394.757,410,485.560
48428.141,470,502.504
48461.409,410,490.412
48494.805,470,504.152
48528.072,410,487.939
48561.455,470,501.897
48594.725,410,488.727
48628.117,470,501.419
48661.388,410,489.182
48694.770,470,503.977
48728.044,410,491.044
48761.427,470,503.331
48794.699,410,491.362
48828.085,470,503.918
48861.356,410,490.438
48894.743,470,503.462
48928.017,410,493.868
48961.401,470,505.036
48994.672,410,490.079
49028.063,470,501.953
49061.333,410,489.009
49094.718,470,499.658
49127.990,410,485.062
49161.375,470,498.893
49194.649,410,483.797
49228.031,470,498.143
49261.306,410,483.809
49294.688,470,502.050
49327.960,410,491.889
49361.344,470,507.486
49394.620,410,495.573
49428.004,470,506.809
49461.281,410,496.250
49494.663,470,507.341
49527.933,410,496.053
49561.319,470,508.382
49594.596,410,496.438
49627.975,470,507.559
49661.252,410,494.505
49694.637,470,506.933
49727.905,410,491.964
49761.291,470,504.652
49794.569,410,493.088
49827.947,470,505.821
49861.221,410,488.660
49894.607,470,503.554
49927.884,410,487.800
49961.262,470,503.744
49994.541,410,486.324
50027.921,470,502.417
50061.199,410,485.579
50094.576,470,500.250
50127.852,410,482.483
50161.232,470,502.679
50194.510,410,484.413
50227.895,470,503.866
50261.170,410,485.725
50294.551,470,508.829
50327.825,410,489.444
50361.209,470,507.236
50394.486,410,489.478
50427.867,470,508.803
50461.146,410,494.033
50494.520,470,512.061
50527.803,410,491.907
50561.180,470,507.838
50594.461,410,487.004
50627.839,470,505.852
50661.115,410,485.328
50694.494,470,506.916
50727.771,410,488.695
50761.148,470,512.318
50794.432,410,489.593
50827.807,470,510.224
50861.089,410,493.335
50894.461,470,514.186
50927.743,410,495.265
50961.119,470,511.911
50994.405,410,489.318
51027.777,470,508.862
51061.064,410,488.185
51094.437,470,507.243
51127.716,410,483.806
51161.096,470,505.489
51194.376,410,482.398
51227.751,470,504.508
51261.032,410,484.770
51294.408,470,506.375
51327.689,410,487.329
51361.062,470,508.333
51394.347,410,485.224
51427.720,470,503.973
51461.004,410,482.337
51494.382,470,504.185
51527.662,410,486.035
51561.038,470,505.699
51594.319,410,484.084
51627.696,470,506.791
51660.978,410,484.964
51694.349,470,503.276
51727.635,410,482.910
51761.005,470,503.121
51794.292,410,482.271
51827.668,470,505.389
51860.951,410,482.951
51894.322,470,506.907
51927.610,410,485.012
51960.978,470,504.588
51994.265,410,485.953
52027.640,470,504.876
52060.924,410,482.547
52094.290,470,503.580
52127.582,410,482.019
52160.952,470,501.842
52194.239,410,481.530
52227.608,470,503.433
52260.897,410,480.990
52294.267,470,501.845
52327.557,410,482.343
52360.921,470,499.578
52394.214,410,479.192
52427.581,470,501.117
52460.873,410,479.840
52494.235,470,498.193
52527.529,410,481.748
52560.895,470,500.982
52594.184,410,481.693
52627.548,470,500.951
52660.841,410,485.056
52694.210,470,501.173
52727.501,410,481.708
52760.865,470,499.733
52794.161,410,485.048
52827.523,470,501.757
52860.816,410,483.479
52894.177,470,502.866
52927.475,410,484.462
52960.838,470,500.014
52994.128,410,479.513
53027.490,470,500.082
53060.787,410,481.896
53094.149,470,498.972
53127.448,410,481.610
53160.807,470,500.704
53194.103,410,481.282
53227.465,470,499.844
53260.758,410,482.189
53294.119,470,501.514
53327.418,410,481.323
53360.779,470,499.952
53394.079,410,480.625
53427.433,470,500.491
53460.733,410,480.518
53494.090,470,499.251
53527.393,410,482.009
53560.747,470,498.955
53594.051,410,482.233
53627.408,470,501.095
53660.705,410,480.897
53694.063,470,499.166
53727.359,410,481.173
53760.718,470,498.586
53794.021,410,479.509
53827.380,470,496.456
53860.680,410,481.181
53894.036,470,497.092
53927.335,410,480.488
53960.692,470,499.522
53993.994,410,483.441
54027.350,470,499.797
54060.648,410,481.150
54094.007,470,498.793
54127.304,410,483.843
54160.663,470,499.716
54193.963,410,483.239
54227.317,470,499.608
54260.622,410,485.356
54293.973,470,500.012
54327.277,410,482.957
54360.633,470,500.214
54393.938,410,483.508
54427.287,470,499.155
54460.591,410,483.771
54493.945,470,501.432
54527.249,410,484.831
54560.605,470,499.710
54593.906,410,486.304
54627.258,470,501.137
54660.563,410,485.395
54693.920,470,502.904
54727.226,410,487.527
54760.573,470,501.346
54793.881,410,488.340
54827.230,470,503.488
54860.539,410,487.505
54893.888,470,502.687
54927.195,410,488.393
54960.544,470,501.563
54993.851,410,486.992
55027.201,470,502.754
55060.510,410,487.381
55093.860,470,502.689
55127.169,410,489.640
55160.513,470,503.766
55193.828,410,487.421
55227.175,470,503.893
55260.479,410,488.386
55293.832,470,501.181
55327.137,410,487.697
55360.484,470,500.737
55393.799,410,486.002
55427.141,470,501.973
55460.452,410,485.536
55493.796,470,501.465
55527.113,410,486.437
55560.454,470,500.569
55593.766,410,485.477
55627.110,470,502.735
55660.429,410,488.971
55693.769,470,502.645
55727.080,410,489.575
55760.425,470,503.716
55793.742,410,488.913
55827.083,470,502.898
55860.401,410,486.237
55893.740,470,500.525
55927.056,410,485.081
55960.399,470,500.555
55993.712,410,487.874
56027.051,470,500.978
56060.374,410,486.182
56093.711,470,499.809
56127.030,410,484.848
56160.370,470,499.010
56193.690,410,480.760
56227.031,470,496.800
56260.343,410,481.623
56293.687,470,498.065
56327.007,410,480.407
56360.345,470,497.482
56393.662,410,482.924
56426.998,470,498.170
56460.322,410,481.434
56493.658,470,498.533
56526.977,410,484.480
56560.315,470,499.225
56593.642,410,484.100
56626.978,470,497.935
56660.297,410,484.122
56693.634,470,498.364
56726.959,410,482.347
56760.293,470,498.749
56793.615,410,485.708
56826.947,470,498.586
56860.275,410,483.229
56893.608,470,497.340
56926.934,410,484.417
56960.268,470,500.247
56993.589,410,485.593
57026.923,470,500.487
57060.249,410,485.092
57093.582,470,499.845
57126.910,410,485.476
57160.241,470,500.591
57193.568,410,486.679
57226.900,470,500.245
57260.224,410,485.475
57293.556,470,499.909
57326.881,410,486.619
57360.212,470,501.319
57393.538,410,486.033
57426.873,470,500.972
57460.195,410,485.176
57493.532,470,500.612
57526.860,410,486.287
57560.186,470,501.818
57593.514,410,486.940
57626.847,470,500.916
57660.175,410,485.549
57693.503,470,500.861
57726.831,410,486.687
57760.159,470,501.456
57793.494,410,485.676
57826.816,470,501.327
57860.150,410,485.639
57893.478,470,500.778
57926.810,410,486.830
57960.130,470,501.623
57993.463,410,486.522
58026.789,470,500.674
58060.126,410,485.103
58093.451,470,501.315
58126.780,410,486.979
58160.107,470,502.097
58193.444,410,486.030
58226.763,470,501.489
58260.101,410,488.465
58293.426,470,502.932
