{"Light":{"Led410Enable":true;"Led470Enable":true;"Led560Enable":false;"Led410Value":50.0;"Led470Value":50.0;"Led560Value":100.0};"Excitation":{"mode":1;"discontinuous":false;"interval_time":1;"continuous_time":1};"Channels":[{"Name":"CH1";"ChanelColor":"#00000000";"Roi1":"337.456338028169;222.898591549295;102.304225352113;102.304225352113";"Roi2":"319;227;102.304225352113;102.304225352113"}];"AllMarking":[{"id":0;"type":1;"opened":true;"name":"STIM";"Levels":0;"color":"#FFFF0000";"key":0;"threshold":0.0;"ID":"0";"all":true;"channels":["AllChannel";"CH1"];"enable":true};{"id":0;"type":2;"opened":true;"name":"Input1";"Levels":0;"color":"#FFFF0000";"key":0;"threshold":0.0;"ID":"0";"all":true;"channels":["AllChannel";"CH1"];"enable":true};{"id":0;"type":2;"opened":true;"name":"Input2";"Levels":0;"color":"#FF604A7B";"key":0;"threshold":0.0;"ID":"0";"all":true;"channels":["AllChannel";"CH1"];"enable":true};{"id":0;"type":2;"opened":true;"name":"Input3";"Levels":0;"color":"#FF92D050";"key":0;"threshold":0.0;"ID":"0";"all":true;"channels":["AllChannel";"CH1"];"enable":true};{"id":0;"type":2;"opened":true;"name":"Input4";"Levels":0;"color":"#FF0099FF";"key":0;"threshold":0.0;"ID":"0";"all":true;"channels":["AllChannel";"CH1"];"enable":true}];"Fps":30.0}
TimeStamp,Events,CH1-410,CH1-470,
0.000,,610.161,293.955,
66.669,,609.825,293.778,
133.331,,609.572,293.380,
200.003,,609.401,293.160,
266.667,,609.495,293.106,
333.331,,609.092,292.976,
399.997,,609.010,292.670,
466.664,,608.874,292.564,
533.332,,608.657,292.517,
600.002,,608.383,292.170,
666.664,,608.395,292.304,
733.331,,608.206,291.724,
800.002,,608.031,291.763,
866.668,,608.159,291.797,
933.332,,608.081,291.454,
999.999,,607.873,291.499,
1066.669,,607.756,291.522,
1133.330,,607.625,291.246,
1200.002,,607.519,291.190,
1266.664,,607.193,291.167,
1333.335,,607.110,290.913,
1400.002,,606.977,290.666,
1466.669,,606.836,290.754,
1533.337,,606.731,290.741,
1599.997,,606.645,290.499,
1666.666,,606.398,290.433,
1733.335,,606.278,290.531,
1800.002,,606.297,290.291,
1866.670,,606.297,290.342,
1933.333,,606.458,290.168,
1999.999,,606.244,290.103,
2066.666,,606.178,290.012,
2133.337,,606.007,289.982,
2200.000,,605.660,289.819,
2266.670,,605.780,289.733,
2333.335,,605.618,289.722,
2400.002,,605.498,289.609,
2466.667,,605.338,289.515,
2533.337,,605.097,289.499,
2599.998,,605.354,289.490,
2666.664,,605.028,289.465,
2733.330,,604.900,289.399,
2799.998,,604.990,289.345,
2866.666,,605.049,289.161,
2933.336,,605.104,289.194,
3000.000,,604.863,289.075,
3066.667,,604.434,289.078,
3133.335,,604.515,288.880,
3199.999,,604.442,288.924,
3266.669,,604.666,288.874,
3333.330,,604.276,288.738,
3400.003,,604.026,288.778,
3466.668,,604.148,288.542,
3533.335,,603.886,288.781,
3599.999,,603.966,288.437,
3666.666,,603.754,288.509,
3733.334,,603.828,288.299,
3800.002,,603.822,288.590,
3866.669,,603.638,288.318,
3933.335,,603.634,288.364,
3999.998,,603.737,288.250,
4066.666,,603.389,288.227,
4133.334,,603.407,288.172,
4200.002,,603.440,288.224,
4266.665,,603.452,288.133,
4333.334,,603.134,288.151,
4400.001,,603.132,288.021,
4466.670,,603.081,287.888,
4533.335,,602.906,287.901,
4600.004,,603.103,287.825,
4666.664,,602.799,287.698,
4733.336,,602.595,287.966,
4800.003,,602.713,287.724,
4866.665,,602.778,287.688,
4933.333,,602.636,287.716,
4999.999,,602.607,287.539,
5066.667,,602.453,287.446,
5133.334,,602.376,287.430,
5199.998,,602.419,287.447,
5266.670,,602.411,287.439,
5333.336,,602.328,287.230,
5400.000,,602.330,287.183,
5466.668,,602.097,287.268,
5533.333,,601.984,287.141,
5600.002,,601.822,287.134,
5666.668,,601.905,287.149,
5733.334,,601.932,287.077,
5799.997,,601.667,287.086,
5866.665,,601.622,287.005,
5933.334,,601.736,286.764,
6000.000,,601.613,286.922,
6066.668,,601.519,286.801,
6133.332,,601.594,286.832,
6200.000,,601.538,286.898,
6266.666,,601.411,286.807,
6333.330,,601.440,286.614,
6399.997,,601.709,286.783,
6466.667,,601.317,286.651,
6533.336,,601.278,286.598,
6600.001,,601.246,286.585,
6666.668,,601.258,286.569,
6733.335,,601.010,286.417,
6800.003,,600.990,286.578,
6866.669,,600.966,286.393,
6933.337,,600.935,286.524,
7000.002,,600.956,286.419,
7066.668,,601.042,286.210,
7133.331,,600.763,286.321,
7199.999,,600.911,286.383,
7266.668,,600.712,286.214,
7333.335,,600.686,286.313,
7400.001,,600.711,286.189,
7466.668,,600.716,286.032,
7533.335,,600.652,286.056,
7599.999,,600.458,285.964,
7666.666,,600.323,286.000,
7733.334,,600.236,285.824,
7800.002,,600.438,286.028,
7866.670,,600.125,286.019,
7933.330,,600.392,285.867,
8000.001,,600.332,285.689,
8066.670,,599.998,285.716,
8133.330,,599.961,285.910,
8199.997,,599.888,285.652,
8266.670,,600.016,285.852,
8333.336,,599.933,285.721,
8399.997,,599.744,285.649,
8466.664,,599.711,285.811,
8533.330,,599.886,285.506,
8599.997,,599.900,285.720,
8666.666,,599.680,285.570,
8733.333,,599.665,285.461,
8799.999,,599.459,285.440,
8866.668,,599.789,285.296,
8933.332,,599.825,285.379,
9000.001,,599.211,285.409,
9066.664,,599.477,285.317,
9133.332,,599.344,285.247,
9200.000,,599.392,285.178,
9266.664,,599.428,285.274,
9333.332,,599.577,285.272,
9400.000,,599.370,285.353,
9466.669,,599.300,285.287,
9533.332,,599.324,285.031,
9600.001,,599.150,285.061,
9666.664,,598.917,284.962,
9733.332,,599.034,285.212,
9800.004,,599.155,284.915,
9866.667,,598.980,284.918,
9933.335,,598.844,284.955,
10000.001,,598.728,284.966,
10066.665,,599.003,284.929,
10133.333,,598.920,284.854,
10199.997,,598.687,284.975,
10266.667,,598.682,284.731,
10333.334,,598.533,284.918,
10399.999,,598.374,284.805,
10466.670,Input1*2*0,598.661,284.774,
10533.334,Input1*2*1,598.256,284.518,
10600.000,,598.644,284.640,
10666.667,,598.492,284.717,
10733.333,,598.432,284.616,
10800.004,,598.114,284.595,
10866.666,,598.395,284.677,
10933.331,,598.307,284.439,
10999.999,,598.365,284.563,
11066.665,,598.339,284.451,
11133.335,,598.052,284.371,
11200.002,,598.238,284.493,
11266.669,,598.521,284.284,
11333.332,,598.010,284.176,
11400.001,,597.835,284.223,
11466.665,,598.100,284.358,
11533.334,,597.986,284.340,
11600.003,,597.820,284.307,
11666.670,,597.949,284.316,
11733.336,,597.931,284.104,
11800.004,,597.656,284.290,
11866.669,,597.842,284.225,
11933.336,,597.476,284.026,
11999.997,,597.482,283.974,
12066.664,,597.526,284.177,
12133.332,,597.448,284.000,
12200.002,,597.487,283.985,
12266.669,,597.524,283.959,
12333.336,,597.553,284.128,
12400.002,,597.725,284.010,
12466.668,,597.305,284.099,
12533.336,,597.457,283.877,
12600.003,,597.569,283.686,
12666.668,,597.358,283.938,
12733.334,,597.224,283.826,
12799.998,,597.146,283.813,
12866.668,,597.320,283.701,
12933.332,,597.063,283.798,
13000.000,,597.103,283.710,
13066.667,,597.321,283.692,
13133.331,,597.026,283.613,
13199.998,,597.064,283.712,
13266.667,,596.829,283.733,
13333.335,,597.045,283.705,
13400.003,,596.675,283.584,
13466.664,,597.074,283.675,
13533.333,,596.775,283.638,
13599.997,,596.757,283.492,
13666.669,,596.794,283.477,
13733.336,,596.699,283.480,
13800.000,,596.619,283.387,
13866.668,,596.732,283.416,
13933.334,,596.537,283.582,
14000.002,,596.509,283.369,
14066.664,,596.747,283.342,
14133.336,,596.389,283.448,
14200.001,,596.556,283.410,
14266.666,,596.803,283.257,
14333.331,,596.539,283.219,
14400.002,,596.335,283.141,
14466.667,,596.173,283.215,
14533.337,,596.855,283.234,
14599.999,,596.650,283.294,
14666.666,,596.701,283.211,
14733.333,,596.749,283.175,
14800.000,,596.536,283.138,
14866.669,,596.446,283.253,
14933.335,,596.367,283.054,
14999.999,,596.209,283.091,
15066.664,,596.195,283.079,
15133.335,,596.159,283.094,
15200.000,,596.121,283.073,
15266.665,,596.035,283.134,
15333.334,,596.535,283.017,
15400.002,,595.897,282.938,
15466.665,,596.225,282.899,
15533.333,,596.007,282.971,
15600.000,,596.191,283.043,
15666.666,,596.367,283.002,
15733.336,,596.337,282.885,
15800.000,,596.099,283.018,
15866.666,,595.886,282.761,
15933.332,,596.084,282.935,
15999.980,,595.753,282.888,
16066.629,,595.878,282.810,
16133.275,,595.864,282.731,
16199.925,,595.705,282.727,
16266.574,,595.638,282.905,
16333.217,,595.716,282.736,
16399.864,,595.667,282.787,
16466.514,,595.537,282.527,
16533.159,,595.159,282.737,
16599.809,,595.401,282.746,
16666.456,,595.386,282.473,
16733.097,,594.803,282.616,
16799.747,,594.761,282.582,
16866.393,,594.898,282.550,
16933.034,,595.071,282.599,
16999.683,,594.906,282.514,
17066.326,,594.670,282.605,
17132.970,,594.355,282.528,
17199.620,,594.682,282.580,
17266.261,,594.512,282.529,
17332.911,,594.672,282.482,
17399.551,,594.481,282.499,
17466.194,,594.595,282.451,
17532.840,,594.596,282.436,
17599.487,,594.800,282.393,
17666.132,,594.713,282.461,
17732.772,,594.692,282.558,
17799.418,,594.496,282.337,
17866.063,,594.185,282.346,
17932.707,,594.413,282.467,
17999.345,,594.418,282.168,
18065.990,,594.132,282.288,
18132.635,,594.308,282.221,
18199.278,,594.308,282.242,
18265.920,,594.109,282.244,
18332.561,,594.275,282.367,
18399.205,,594.200,282.236,
18465.849,,594.040,282.332,
18532.490,,593.921,282.130,
18599.131,,594.179,282.246,
18665.774,,594.229,282.230,
18732.411,,594.105,282.183,
18799.053,,593.988,282.241,
18865.696,,594.081,282.167,
18932.340,,594.036,282.131,
18998.977,,593.818,281.777,
19065.621,,593.748,282.114,
19132.263,,593.734,282.030,
19198.904,,593.630,281.983,
19265.540,,593.806,282.031,
19332.184,,593.691,282.065,
19398.821,,593.787,281.967,
19465.460,,593.743,281.936,
19532.100,,593.588,281.970,
19598.738,,593.904,281.898,
19665.382,,593.881,281.877,
19732.017,,593.635,281.970,
19798.658,,593.541,281.812,
19865.294,,593.799,282.047,
19931.934,,593.696,281.877,
19998.572,,593.702,281.796,
20065.210,,593.508,282.082,
20131.850,,593.318,281.941,
20198.492,,593.527,281.859,
20265.129,,593.552,281.771,
20331.764,,593.275,281.751,
20398.406,,593.379,281.676,
20465.041,,593.120,281.690,
20531.677,,593.306,281.609,
20598.316,,593.458,281.778,
20664.955,,593.452,281.696,
20731.587,,593.318,281.744,
20798.227,,593.425,281.662,
20864.862,,593.298,281.539,
20931.501,,593.287,281.636,
20998.136,,593.211,281.653,
21064.774,,593.046,281.560,
21131.407,,592.969,281.589,
21198.041,,592.987,281.588,
21264.679,,592.989,281.580,
21331.316,,593.142,281.582,
21397.953,,593.168,281.680,
21464.586,,593.188,281.352,
21531.221,,592.847,281.542,
21597.852,,592.997,281.565,
21664.488,Input1*2*0,592.942,281.300,
21731.126,,593.060,281.511,
21797.758,,592.894,281.346,
21864.390,,592.798,281.352,
21931.027,,592.917,281.319,
21997.661,,592.664,281.312,
22064.295,,592.780,281.417,
22130.926,,592.717,281.443,
22197.561,Input1*2*1,592.757,281.083,
22264.194,,592.881,281.374,
22330.825,,592.712,281.285,
22397.461,,592.660,281.280,
22464.092,,592.501,281.259,
22530.727,,592.345,281.081,
22597.358,,592.667,281.173,
22663.995,,592.549,281.283,
22730.621,,592.483,281.050,
22797.258,,592.536,281.293,
22863.890,,592.556,281.244,
22930.522,,592.672,281.335,
22997.150,,592.487,281.080,
23063.780,,592.682,281.318,
23130.411,,592.470,281.236,
23197.047,,592.430,281.110,
23263.676,,592.322,281.167,
23330.308,,592.480,281.121,
23396.935,,592.243,281.059,
23463.572,,592.322,281.021,
23530.197,,592.244,281.047,
23596.826,,592.083,280.942,
23663.457,,592.229,281.034,
23730.086,,592.119,281.023,
23796.720,,592.179,281.031,
23863.347,,592.123,281.016,
23929.974,,592.149,280.850,
23996.638,,592.044,281.013,
24063.294,,591.975,280.824,
24129.955,,592.238,280.873,
24196.607,,592.059,280.862,
24263.270,,591.976,280.774,
24329.922,,592.004,280.876,
24396.583,,591.918,280.837,
24463.241,,592.140,280.977,
24529.899,,592.044,280.610,
24596.555,,591.926,280.907,
24663.213,,592.000,280.875,
24729.873,,591.608,280.780,
24796.532,,591.701,280.894,
24863.187,,591.765,280.676,
24929.850,,591.922,280.689,
24996.504,,591.757,280.801,
25063.163,,592.007,280.717,
25129.818,,591.540,280.775,
25196.477,,591.869,280.847,
25263.138,,591.640,280.857,
25329.794,,591.947,280.588,
25396.452,,591.583,280.707,
25463.111,,591.695,280.678,
25529.769,,591.479,280.621,
25596.429,,591.607,280.700,
25663.087,,591.499,280.607,
25729.743,,591.439,280.609,
25796.402,,591.452,280.450,
25863.057,,591.475,280.485,
25929.715,,591.466,280.465,
25996.374,,591.597,280.651,
26063.034,,591.623,280.514,
26129.690,,591.228,280.449,
26196.349,,591.517,280.505,
26263.005,,591.425,280.452,
26329.665,,591.359,280.407,
26396.321,,591.137,280.304,
26462.978,,591.536,280.458,
26529.642,,591.233,280.423,
26596.296,,591.624,280.397,
26662.953,,590.906,280.384,
26729.611,,591.107,280.503,
26796.274,,590.957,280.286,
26862.930,,591.335,280.365,
26929.586,,591.158,280.273,
26996.243,,591.379,280.330,
27062.907,,590.994,280.372,
27129.563,,591.111,280.355,
27196.223,,591.128,280.266,
27262.875,,590.919,280.277,
27329.539,,591.058,280.227,
27396.195,,591.139,280.359,
27462.853,,591.202,280.159,
27529.509,,590.947,280.227,
27596.170,,591.106,280.222,
27662.825,,591.053,280.054,
27729.487,,591.169,280.247,
27796.146,,590.910,280.317,
27862.801,,590.963,280.064,
27929.462,,591.156,280.045,
27996.116,,590.448,280.124,
28062.774,,591.245,280.093,
28129.433,,590.867,280.039,
28196.090,,590.453,280.093,
28262.752,,590.950,280.140,
28329.406,,590.862,280.075,
28396.069,,591.013,280.164,
28462.724,,590.719,280.183,
28529.380,,590.822,280.007,
28596.043,,590.818,280.014,
28662.683,,590.760,280.084,
28729.359,,590.696,280.046,
28796.014,,590.676,279.970,
28862.674,,590.544,279.872,
28929.335,,590.464,279.873,
28995.986,,590.248,279.932,
29062.645,,590.534,279.863,
29129.305,,590.821,280.061,
29195.963,,590.582,279.852,
29262.621,,590.856,279.756,
29329.282,,590.810,279.831,
