{"Light":{"Led410Enable":true;"Led470Enable":true;"Led560Enable":false;"Led410Value":50.0;"Led470Value":50.0;"Led560Value":100.0};"Excitation":{"mode":1;"discontinuous":false;"interval_time":1;"continuous_time":1};"Channels":[{"Name":"CH1";"ChanelColor":"#00000000";"Roi1":"346.171830985915;250.583098591549;96.1521126760566;96.1521126760566";"Roi2":"319;227;96.1521126760566;96.1521126760566"}];"AllMarking":[{"id":0;"type":1;"opened":true;"name":"STIM";"Levels":0;"color":"#FFFF0000";"key":0;"threshold":0.0;"ID":"0";"all":true;"channels":["AllChannel";"CH1"];"enable":true};{"id":0;"type":2;"opened":true;"name":"Input1";"Levels":0;"color":"#FFFF0000";"key":0;"threshold":0.0;"ID":"0";"all":true;"channels":["AllChannel";"CH1"];"enable":true};{"id":0;"type":2;"opened":true;"name":"Input2";"Levels":0;"color":"#FF604A7B";"key":0;"threshold":0.0;"ID":"0";"all":true;"channels":["AllChannel";"CH1"];"enable":true};{"id":0;"type":2;"opened":true;"name":"Input3";"Levels":0;"color":"#FF92D050";"key":0;"threshold":0.0;"ID":"0";"all":true;"channels":["AllChannel";"CH1"];"enable":true};{"id":0;"type":2;"opened":true;"name":"Input4";"Levels":0;"color":"#FF0099FF";"key":0;"threshold":0.0;"ID":"0";"all":true;"channels":["AllChannel";"CH1"];"enable":true}];"Fps":30.0}
TimeStamp,Events,CH1-410,CH1-470,
0.000,,638.729,680.555,
66.667,,631.788,677.508,
133.335,,632.357,674.445,
200.003,,626.994,670.073,
266.672,,620.911,669.547,
333.333,,624.046,666.486,
400.005,,619.700,662.568,
466.670,,617.927,663.460,
533.336,,635.725,667.079,
600.001,,624.504,672.817,
666.667,,632.629,673.385,
733.340,,647.660,681.667,
800.005,,644.278,675.648,
866.668,,658.463,683.150,
933.334,,662.850,688.009,
1000.003,,668.278,679.746,
1066.671,,655.498,670.193,
1133.338,,646.947,662.914,
1200.005,,640.295,659.960,
1266.670,,637.172,656.533,
1333.338,,632.181,654.084,
1400.003,,634.228,653.612,
1466.670,,629.386,651.798,
1533.338,,627.823,652.060,
1600.005,,629.581,650.765,
1666.668,,627.033,649.360,
1733.334,,626.149,650.175,
1800.003,,626.215,648.634,
1866.669,,623.820,649.954,
1933.335,,627.288,649.569,
2000.005,,624.492,648.271,
2066.670,,624.644,649.384,
2133.338,,626.775,648.033,
2200.005,,623.119,647.540,
2266.667,,623.521,648.508,
2333.335,,624.867,646.305,
2400.005,,621.331,646.356,
2466.670,,624.642,647.831,
2533.334,,627.731,646.851,
2600.004,,610.525,636.598,
2666.671,,596.636,621.595,
2733.339,,591.890,634.903,
2800.003,,584.981,629.809,
2866.670,,590.073,627.150,
2933.338,,579.363,631.030,
3000.006,,579.697,629.089,
3066.668,,593.916,633.595,
3133.333,,599.776,634.824,
3200.004,,606.210,633.954,
3266.670,,611.156,636.999,
3333.335,,613.815,637.782,
3400.003,,609.979,639.998,
3466.670,,622.867,647.880,
3533.336,,631.488,650.199,
3600.003,,634.481,648.589,
3666.671,,632.441,649.324,
3733.339,,622.451,641.587,
3800.001,,620.612,635.645,
3866.668,,618.611,646.597,
3933.339,,638.687,652.318,
4000.005,,631.349,651.096,
4066.673,,627.370,644.753,
4133.337,,606.544,643.475,
4200.005,,601.400,643.841,
4266.673,,607.698,641.136,
4333.339,,584.942,642.134,
4400.007,,590.798,636.328,
4466.668,,588.569,626.406,
4533.337,,576.131,626.847,
4600.006,,588.858,616.334,
4666.668,,590.646,629.790,
4733.340,,582.003,628.764,
4800.001,,586.903,623.894,
4866.674,,562.857,610.765,
4933.340,,547.094,621.910,
5000.001,,568.495,621.909,
5066.669,,555.004,608.547,
5133.334,,543.761,609.615,
5200.003,,547.417,612.552,
5266.669,,576.606,625.999,
5333.339,,604.896,636.238,
5400.004,,625.918,636.711,
5466.672,,618.625,635.984,
5533.339,,622.544,644.008,
5600.002,,625.423,646.404,
5666.671,,628.416,644.262,
5733.339,,626.334,643.023,
5800.004,,624.925,639.112,
5866.669,,613.441,639.556,
5933.340,,620.746,639.757,
6000.004,,617.287,645.035,
6066.672,,621.610,645.822,
6133.336,,625.622,646.628,
6200.002,,625.630,645.569,
6266.668,,619.010,640.722,
6333.334,,609.541,642.420,
6400.002,,611.234,639.514,
6466.669,,600.690,640.389,
6533.335,,603.008,642.405,
6600.001,,598.287,645.581,
6666.672,,609.885,654.902,
6733.335,,618.280,649.306,
6800.005,,614.393,644.319,
6866.668,,609.494,646.170,
6933.333,,612.761,646.180,
7000.001,,618.660,645.043,
7066.668,,602.364,645.403,
7133.338,,615.015,643.622,
7200.002,,607.134,646.311,
7266.667,,606.001,644.490,
7333.334,,605.942,634.971,
7400.004,,583.517,634.087,
7466.673,,568.281,637.157,
7533.334,,607.810,648.901,
7600.002,,607.808,647.645,
7666.669,,605.396,642.501,
7733.336,,603.603,636.501,
7800.005,,594.570,639.428,
7866.667,,586.788,628.629,
7933.335,,570.526,627.885,
8000.000,,557.608,629.977,
8066.671,,558.896,623.492,
8133.339,,565.643,623.933,
8200.005,,551.952,622.030,
8266.670,,563.458,622.567,
8333.336,,549.285,622.663,
8400.004,,559.249,619.336,
8466.667,,550.513,621.103,
8533.336,,560.504,619.195,
8600.003,,553.639,621.254,
8666.667,,562.359,621.140,
8733.340,,558.797,618.547,
8800.002,,561.002,621.591,
8866.669,,564.473,620.348,
8933.333,,561.857,619.811,
9000.001,,556.484,622.741,
9066.670,,564.609,620.671,
9133.336,,560.728,618.942,
9200.002,,566.608,622.645,
9266.672,,566.131,621.491,
9333.340,,561.375,620.798,
9400.002,,567.381,622.638,
9466.673,,567.699,620.676,
9533.337,,565.993,624.724,
9600.006,,572.012,624.980,
9666.669,,567.447,623.465,
9733.337,,562.201,624.909,
9800.002,,573.403,624.127,
9866.669,,568.190,621.022,
9933.336,,573.251,621.913,
10000.002,,569.921,625.366,
10066.669,,586.855,622.946,
10133.335,,576.723,619.100,
10200.007,,552.522,617.629,
10266.672,,565.321,615.363,
10333.337,,564.486,611.755,
10400.005,,542.903,612.825,
10466.667,,550.012,611.854,
10533.340,,542.586,608.540,
10600.003,,535.235,608.992,
10666.673,,527.031,612.490,
10733.337,,545.838,611.696,
10800.004,,541.637,609.055,
10866.671,,579.394,628.912,
10933.339,,611.708,630.343,
11000.000,,606.548,631.402,
11066.670,,595.081,627.125,
11133.338,,605.718,634.058,
11200.003,,618.348,634.769,
11266.668,,611.862,631.849,
11333.337,,608.990,629.570,
11400.006,,606.343,626.457,
11466.669,,596.064,624.070,
11533.340,,596.822,624.409,
11600.003,,589.526,623.804,
11666.672,,592.221,625.313,
11733.333,,590.558,622.685,
11800.007,,586.486,623.873,
11866.668,,594.806,623.537,
11933.340,,589.340,622.843,
12000.004,,590.038,625.661,
12066.671,,588.820,623.522,
12133.337,,586.635,622.265,
12200.001,,593.794,623.955,
12266.672,,590.502,621.771,
12333.336,,586.181,624.911,
12400.006,,596.745,630.048,
12466.667,,619.863,635.171,
12533.338,,617.634,632.686,
12600.004,,607.848,632.269,
12666.670,,608.094,624.081,
12733.336,,596.100,625.708,
12800.007,,595.970,622.892,
12866.671,,600.911,626.618,
12933.334,,595.916,623.910,
13000.006,,590.013,626.216,
13066.667,,594.430,623.260,
13133.335,,589.857,621.663,
13200.004,,598.711,622.954,
13266.670,,592.010,621.713,
13333.339,,586.025,621.327,
13400.004,,591.332,622.140,
13466.669,,590.227,619.974,
13533.336,,585.253,621.036,
13600.005,,591.873,621.827,
13666.671,,585.761,620.718,
13733.338,,584.746,620.071,
13800.003,,587.210,622.517,
13866.672,,591.220,622.606,
13933.334,,585.795,622.474,
14000.006,,587.625,626.364,
14066.673,,599.240,636.110,
14133.338,,633.369,637.193,
14200.002,,617.516,633.780,
14266.669,,606.284,638.856,
14333.336,,626.503,638.309,
14400.006,,627.653,635.301,
14466.671,,617.414,639.565,
14533.333,,627.561,633.512,
14600.005,,610.017,631.796,
14666.670,,603.843,624.280,
14733.339,,606.609,633.563,
14800.004,,613.997,629.907,
14866.669,,616.124,636.662,
14933.335,,615.857,633.763,
15000.003,,611.965,632.368,
15066.669,,605.872,626.797,
15133.334,,594.410,623.510,
15200.006,,570.513,614.903,
15266.670,,576.272,625.958,
15333.339,,589.449,630.367,
15400.005,,602.853,634.439,
15466.672,,599.719,629.623,
15533.339,,577.373,620.842,
15600.003,,567.919,610.678,
15666.667,,550.458,618.265,
15733.337,,574.399,626.115,
15800.005,,594.522,626.226,
15866.670,,577.517,622.715,
15933.340,,588.823,629.125,
15999.981,,583.504,632.754,
16066.631,,598.389,634.856,
16133.277,,599.205,637.020,
16199.925,,608.324,636.270,
16266.577,,595.725,641.014,
16333.218,,597.948,639.857,
16399.871,,590.407,636.553,
16466.515,,590.951,629.894,
16533.159,,581.946,636.277,
16599.805,,601.452,639.112,
16666.452,,602.374,644.687,
16733.102,,603.399,639.172,
16799.747,,607.737,640.541,
16866.390,,607.376,645.853,
16933.036,,615.963,641.588,
16999.682,,605.206,639.408,
17066.329,,580.073,629.132,
17132.976,,568.131,628.738,
17199.617,,565.278,636.700,
17266.262,,575.228,637.179,
17332.904,,591.227,645.206,
17399.553,,601.471,644.770,
17466.197,,587.742,632.128,
17532.842,,575.898,642.783,
17599.485,,595.403,645.581,
17666.130,,597.617,645.733,
17732.775,,605.127,643.542,
17799.415,,598.403,647.918,
17866.058,,648.470,658.761,
17932.701,,649.623,664.988,
17999.348,,643.339,662.549,
18065.990,,658.367,656.531,
18132.632,,658.455,662.157,
18199.274,,634.620,663.728,
18265.916,,640.838,647.713,
18332.556,,648.209,660.497,
18399.198,,619.550,653.754,
18465.845,,629.995,649.599,
18532.482,,608.214,646.488,
18599.124,,618.039,649.983,
18665.769,,628.008,653.348,
18732.410,,629.640,653.554,
18799.052,,633.899,656.552,
18865.691,,627.067,655.539,
18932.330,,627.859,660.484,
18998.972,,623.951,658.881,
19065.614,,626.772,668.105,
19132.251,,634.993,659.826,
19198.894,,627.309,657.905,
19265.531,,628.646,664.606,
19332.172,,623.044,661.943,
19398.810,,628.038,664.303,
19465.452,,629.081,670.242,
19532.093,,626.012,669.218,
19598.730,,631.621,661.916,
19665.370,,622.414,661.542,
19732.007,,619.500,663.641,
19798.647,,618.020,659.950,
19865.288,,618.168,651.453,
19931.926,,608.054,657.104,
19998.564,,616.450,665.764,
20065.201,,619.412,661.780,
20131.838,,617.207,655.543,
20198.480,,619.224,657.733,
20265.119,,615.795,656.871,
20331.754,,612.033,656.890,
20398.391,,614.846,661.542,
20465.030,,609.709,658.180,
20531.663,,614.751,658.829,
20598.303,,610.018,657.194,
20664.940,,616.078,656.528,
20731.576,,611.920,655.127,
20798.215,,609.031,658.156,
20864.851,,614.293,656.871,
20931.483,,613.890,651.857,
20998.124,,607.953,649.749,
21064.754,,608.468,650.290,
21131.394,,604.687,654.870,
21198.031,,625.497,654.892,
21264.664,,615.938,648.442,
21331.297,,616.353,650.352,
21397.931,,595.414,631.372,
21464.567,,580.764,644.236,
21531.203,,606.181,648.206,
21597.837,,604.605,651.390,
21664.475,,610.336,646.234,
21731.109,,604.594,648.013,
21797.739,,615.257,652.854,
21864.372,,608.202,646.493,
21931.007,,607.282,646.352,
21997.644,,612.717,648.573,
22064.278,,601.295,643.930,
22130.912,,613.276,649.140,
22197.545,,602.226,644.834,
22264.177,,612.414,645.083,
22330.807,,605.712,646.230,
22397.443,,598.446,642.014,
22464.075,,582.874,632.139,
22530.705,,596.504,640.283,
22597.338,,595.137,643.709,
22663.968,,608.606,645.440,
22730.605,,604.243,644.097,
22797.236,,603.367,646.810,
22863.867,,595.779,643.678,
22930.497,,607.412,641.035,
22997.128,,606.898,646.696,
23063.760,,603.187,648.375,
23130.388,,593.709,632.300,
23197.023,,573.040,632.686,
23263.649,,579.282,638.634,
23330.281,,598.452,636.298,
23396.911,,588.068,643.578,
23463.546,,596.787,644.983,
23530.171,,596.999,642.069,
23596.800,,605.821,646.722,
23663.435,,605.802,635.957,
23730.058,,593.666,638.271,
23796.695,,585.698,630.190,
23863.320,,564.447,629.675,
23929.951,,575.054,634.180,
23996.608,,590.056,637.913,
24063.262,,576.076,634.076,
24129.923,,574.214,621.543,
24196.585,,546.111,632.698,
24263.238,,583.122,634.913,
24329.899,,583.167,630.301,
24396.557,,572.327,634.490,
24463.211,,560.462,628.548,
24529.874,,559.402,619.481,
24596.528,,559.176,627.810,
24663.190,,581.528,626.659,
24729.849,,563.615,627.996,
24796.501,,552.699,627.542,
24863.158,,549.320,622.165,
24929.822,,542.801,614.484,
24996.476,,539.805,609.888,
25063.137,,541.604,615.879,
25129.797,,567.442,618.782,
25196.449,,563.629,613.246,
25263.110,,557.888,614.530,
25329.767,,571.266,614.309,
25396.426,,550.502,610.075,
25463.086,,534.970,601.521,
25529.744,,536.524,601.166,
25596.401,,524.253,597.054,
25663.061,,522.072,597.948,
25729.717,,533.666,609.494,
25796.373,,570.624,622.154,
25863.031,,584.993,626.607,
25929.691,,574.235,624.898,
25996.346,,557.680,629.288,
26063.009,,593.986,629.104,
26129.665,,580.121,624.080,
26196.324,,591.246,628.869,
26262.985,,578.384,621.154,
26329.639,,570.808,622.599,
26396.295,,562.685,617.661,
26462.955,,572.574,622.165,
26529.611,,564.053,623.219,
26596.269,,563.832,625.738,
26662.931,,571.973,626.260,
26729.586,,581.389,629.153,
26796.247,,577.254,625.802,
26862.907,,574.212,621.490,
26929.562,,551.931,620.847,
26996.224,,560.441,628.239,
27062.877,,575.118,630.768,
27129.537,,586.362,629.505,
27196.195,,572.424,627.319,
27262.854,,579.216,627.972,
27329.514,,577.991,630.606,
27396.173,,591.558,630.665,
27462.829,,583.992,631.901,
27529.484,,580.623,631.845,
27596.146,,577.747,621.291,
27662.804,,564.741,626.558,
27729.460,,558.590,625.065,
27796.122,,564.909,625.824,
27862.778,,564.192,630.614,
27929.437,,584.027,637.728,
27996.096,,592.741,638.787,
28062.754,,595.221,637.319,
28129.412,,600.223,637.986,
28196.071,,602.643,632.818,
28262.725,,593.651,631.068,
28329.388,,582.166,630.589,
28396.043,,588.223,633.117,
28462.701,,592.938,633.732,
28529.363,,583.214,633.801,
28596.022,,588.243,634.839,
28662.676,,575.653,632.015,
28729.337,,565.612,618.217,
28795.997,,553.334,620.443,
28862.655,,540.464,616.418,
28929.308,,537.770,615.531,
28995.972,,539.428,620.685,
29062.629,,556.685,615.540,
29129.283,,538.624,614.458,
29195.943,,556.932,616.979,
29262.602,,536.336,609.788,
29329.262,,533.273,603.694,
29395.915,,539.433,615.041,
29462.580,,524.969,602.546,
29529.238,,520.567,595.788,
29595.896,,516.666,599.083,
29662.549,,503.452,593.244,
29729.213,,511.437,594.959,
29795.869,,516.712,601.256,
29862.526,,509.869,597.850,
29929.183,,507.566,593.218,
29995.846,,504.680,589.499,
30062.505,,503.794,590.992,
30129.163,,501.550,590.801,
30195.822,,505.322,588.966,
30262.477,,515.622,599.725,
30329.135,,527.155,606.900,
30395.793,,541.103,615.823,
30462.452,,567.477,620.244,
30529.109,,583.159,624.637,
30595.768,,580.419,620.997,
30662.429,,570.986,623.875,
30729.083,,568.307,622.842,
30795.744,,554.756,613.243,
30862.401,,563.739,617.934,
30929.064,,555.578,617.071,
30995.721,,560.325,620.455,
31062.381,,556.379,622.063,
31129.035,,562.694,621.201,
31195.697,,571.550,620.534,
31262.353,,552.263,612.380,
31329.015,,548.549,613.448,
31395.668,,539.346,611.473,
31462.330,,547.278,613.497,
31528.987,,543.833,614.829,
31595.647,,566.336,615.402,
31662.304,,557.445,618.937,
31728.963,,558.768,619.227,
31795.624,,549.712,624.833,
31862.280,,562.703,627.704,
31928.936,,572.805,622.505,
31995.598,,570.997,622.768,
32062.252,,566.488,618.300,
32128.911,,556.787,619.814,
32195.568,,560.642,617.719,
32262.226,,556.537,616.119,
32328.881,,562.103,617.115,
32395.540,,555.825,616.178,
32462.200,,552.074,615.600,
32528.854,,560.180,616.276,
32595.511,,557.636,614.465,
32662.169,,554.355,614.639,
32728.824,,558.276,616.443,
32795.486,,555.041,614.731,
32862.143,,552.864,613.944,
32928.797,,560.618,615.175,
32995.453,,556.807,613.544,
33062.110,,554.399,613.765,
33128.772,,549.265,616.472,
33195.425,,558.149,615.263,
33262.086,,555.779,614.840,
33328.742,,559.667,618.276,
33395.401,,555.268,616.669,
33462.056,,553.596,615.701,
33528.715,,556.790,617.612,
33595.372,,557.871,615.784,
33662.029,,554.967,615.547,
33728.685,,556.814,629.603,
33795.343,,597.003,634.502,
33862.002,,589.722,625.548,
33928.655,,587.456,628.026,
33995.315,,567.638,621.247,
34061.972,,570.808,625.799,
34128.632,,589.327,628.203,
34195.287,,572.876,623.815,
34261.941,,579.510,623.343,
34328.598,,575.671,621.669,
34395.260,,561.469,614.381,
34461.915,,550.326,615.907,
34528.573,,561.311,623.568,
34595.230,,591.700,633.134,
34661.891,,603.256,629.057,
34728.542,,584.278,624.300,
34795.204,,592.259,627.632,
34861.860,,588.985,628.522,
34928.514,,581.654,623.178,
34995.174,,575.124,625.409,
35061.830,,582.032,626.759,
35128.487,,574.508,627.285,
35195.143,,579.602,628.574,
35261.801,,590.872,627.552,
35328.464,,580.265,625.096,
35395.115,,573.551,626.612,
35461.775,,571.657,618.277,
35528.430,,574.774,622.826,
35595.088,,568.442,620.737,
35661.749,,574.165,625.898,
35728.404,,581.068,624.233,
35795.063,,573.121,625.132,
35861.721,,569.615,622.382,
35928.378,,569.081,619.259,
35995.032,,554.681,613.446,
36061.693,,557.100,615.210,
36128.347,,553.139,617.191,
36195.006,,558.663,615.574,
36261.662,,559.186,617.472,
36328.323,,558.478,616.738,
36394.974,,556.433,613.949,
36461.635,,553.403,615.397,
36528.290,,552.889,613.922,
36594.952,,549.974,613.860,
36661.607,,555.327,613.560,
36728.266,,554.679,612.276,
36794.923,,549.000,613.081,
36861.576,,552.955,612.457,
36928.234,,549.397,611.114,
36994.894,,552.785,611.433,
37061.551,,561.240,628.609,
37128.206,,591.614,629.123,
37194.864,,566.034,623.376,
37261.522,,568.194,619.642,
37328.176,,562.693,617.105,
37394.839,,567.257,617.999,
37461.493,,568.975,618.398,
37528.152,,575.510,618.699,
37594.805,,565.483,614.123,
37661.466,,570.512,617.462,
37728.121,,570.269,616.868,
37794.782,,560.219,615.836,
37861.436,,562.182,613.736,
37928.093,,557.622,611.504,
37994.749,,553.095,612.563,
38061.411,,555.337,610.309,
38128.065,,554.006,609.876,
38194.724,,550.172,612.271,
38261.381,,553.255,612.226,
38328.035,,553.038,611.787,
38394.698,,553.922,615.358,
38461.354,,555.163,615.643,
38528.013,,553.247,614.891,
38594.667,,550.887,618.338,
38661.324,,555.224,616.129,
38727.978,,554.865,614.440,
38794.641,,555.511,617.301,
38861.295,,555.379,616.102,
38927.953,,554.107,614.659,
38994.608,,558.433,610.425,
39061.267,,553.306,610.424,
39127.922,,571.239,621.083,
39194.580,,571.839,608.714,
39261.239,,534.294,598.503,
39327.894,,544.818,608.098,
39394.554,,534.261,602.448,
39461.212,,524.385,602.168,
39527.871,,544.503,611.878,
39594.524,,531.315,608.860,
39661.181,,528.488,610.544,
39727.838,,542.538,609.025,
39794.499,,539.239,604.907,
39861.152,,536.220,609.487,
39927.814,,536.994,607.931,
39994.470,,529.997,608.762,
40061.127,,541.725,617.556,
40127.791,,579.959,628.349,
40194.447,,618.344,621.882,
40261.107,,552.445,620.756,
40327.763,,559.654,611.381,
40394.428,,553.410,614.683,
40461.083,,558.935,619.743,
40527.746,,587.942,624.075,
40594.406,,582.788,618.868,
40661.062,,563.494,621.638,
40727.720,,565.739,618.387,
40794.378,,561.633,619.159,
40861.040,,564.328,619.179,
40927.699,,564.168,619.280,
40994.357,,561.804,619.965,
41061.019,,561.005,619.596,
41127.677,,564.848,619.280,
41194.338,,558.980,618.141,
41260.997,,555.507,616.695,
41327.657,,556.870,617.805,
41394.313,,556.216,615.920,
41460.970,,553.479,613.908,
41527.631,,557.814,615.770,
41594.294,,554.922,614.737,
41660.952,,554.040,613.968,
41727.611,,550.256,613.574,
41794.266,,557.921,612.899,
41860.930,,555.855,612.437,
41927.585,,551.145,613.103,
41994.250,,558.004,622.392,
42060.906,,595.629,631.571,
42127.565,,582.895,622.526,
42194.226,,582.374,621.404,
42260.886,,567.144,618.870,
42327.540,,586.286,621.576,
42394.202,,570.012,617.734,
42460.859,,581.484,624.606,
42527.523,,594.990,626.923,
42594.179,,595.653,631.571,
42660.838,,586.428,622.159,
42727.501,,582.524,615.303,
42794.158,,563.693,612.686,
42860.818,,564.363,609.452,
42927.474,,556.103,611.767,
42994.138,,563.290,611.942,
43060.792,,558.663,609.012,
43127.451,,561.364,610.857,
43194.117,,559.145,609.177,
43260.774,,555.937,607.116,
43327.434,,557.682,609.372,
43394.094,,554.321,608.524,
43460.749,,551.409,607.674,
43527.413,,555.298,608.994,
43594.072,,554.759,611.413,
43660.730,,568.770,624.304,
43727.387,,601.286,630.278,
43794.047,,585.217,621.443,
43860.710,,573.140,617.501,
43927.366,,573.460,613.086,
43994.029,,565.920,625.330,
44060.672,,576.300,615.825,
44127.345,,560.902,614.645,
44194.007,,566.328,616.941,
44260.662,,562.396,612.646,
44327.323,,552.445,618.293,
44393.985,,574.246,618.808,
44460.640,,568.845,617.257,
44527.303,,572.581,612.396,
44593.964,,569.204,618.931,
44660.622,,592.927,624.160,
44727.277,,554.290,610.194,
44793.937,,552.155,605.370,
44860.600,,537.748,609.234,
