{"Light":{"Led410Enable":true;"Led470Enable":true;"Led560Enable":false;"Led410Value":50.0;"Led470Value":50.0;"Led560Value":100.0};"Excitation":{"mode":1;"discontinuous":false;"interval_time":1;"continuous_time":1};"Channels":[{"Name":"CH1";"ChanelColor":"#00000000";"Roi1":"346.171830985915;250.583098591549;96.1521126760566;96.1521126760566";"Roi2":"319;227;96.1521126760566;96.1521126760566"}];"AllMarking":[{"id":0;"type":1;"opened":true;"name":"STIM";"Levels":0;"color":"#FFFF0000";"key":0;"threshold":0.0;"ID":"0";"all":true;"channels":["AllChannel";"CH1"];"enable":true};{"id":0;"type":2;"opened":true;"name":"Input1";"Levels":0;"color":"#FFFF0000";"key":0;"threshold":0.0;"ID":"0";"all":true;"channels":["AllChannel";"CH1"];"enable":true};{"id":0;"type":2;"opened":true;"name":"Input2";"Levels":0;"color":"#FF604A7B";"key":0;"threshold":0.0;"ID":"0";"all":true;"channels":["AllChannel";"CH1"];"enable":true};{"id":0;"type":2;"opened":true;"name":"Input3";"Levels":0;"color":"#FF92D050";"key":0;"threshold":0.0;"ID":"0";"all":true;"channels":["AllChannel";"CH1"];"enable":true};{"id":0;"type":2;"opened":true;"name":"Input4";"Levels":0;"color":"#FF0099FF";"key":0;"threshold":0.0;"ID":"0";"all":true;"channels":["AllChannel";"CH1"];"enable":true}];"Fps":30.0}
TimeStamp,Events,CH1-410,CH1-470,
0.000,,685.172,701.690,
66.671,,687.118,701.764,
133.335,,688.297,702.140,
200.000,,683.508,699.612,
266.670,,678.088,695.640,
333.333,,680.176,686.552,
400.004,,675.070,689.522,
466.670,,672.597,686.876,
533.336,,674.087,688.209,
600.005,,675.449,686.510,
666.667,,675.421,689.032,
733.336,,673.859,681.912,
800.001,,670.042,680.105,
866.672,,664.003,679.966,
933.338,,666.592,676.529,
1000.000,,668.353,674.834,
1066.672,,665.302,674.088,
1133.335,,661.644,673.291,
1200.005,,658.720,670.543,
1266.666,,659.864,669.534,
1333.332,,659.949,667.468,
1400.003,,657.783,666.276,
1466.666,,652.177,666.502,
1533.338,,651.327,666.891,
1600.002,,652.024,664.775,
1666.672,,654.055,665.646,
1733.339,,656.715,666.895,
1800.005,,656.144,665.344,
1866.669,,657.935,667.410,
1933.332,,662.997,671.082,
2000.004,,664.769,670.753,
2066.669,,667.605,675.754,
2133.336,,668.182,675.041,
2200.003,,666.565,673.471,
2266.672,,668.073,674.148,
2333.332,,665.531,675.479,
2400.000,,667.735,673.857,
2466.672,,670.228,674.351,
2533.334,,662.177,670.485,
2600.002,,664.738,664.749,
2666.667,,660.079,670.673,
2733.335,,664.147,672.744,
2800.000,,663.805,672.629,
2866.672,,660.121,667.360,
2933.338,,659.536,668.334,
3000.002,,666.509,670.144,
3066.669,,666.164,674.290,
3133.338,,669.451,674.861,
3200.004,,675.435,675.700,
3266.672,,675.610,679.036,
3333.337,,678.589,681.731,
3400.003,,678.678,676.939,
3466.669,,672.002,667.886,
3533.336,,657.377,663.633,
3600.003,,658.255,659.641,
3666.668,,659.596,659.165,
3733.334,,654.035,657.514,
3800.005,,653.371,656.310,
3866.668,,648.371,652.595,
3933.335,,640.807,650.105,
4000.003,,645.030,648.949,
4066.669,,648.938,649.111,
4133.334,,634.327,648.877,
4200.003,,645.503,645.610,
4266.671,,642.626,650.205,
4333.333,,642.175,650.429,
4400.005,,646.488,650.019,
4466.671,,647.957,645.539,
4533.333,,645.386,649.364,
4600.000,,636.609,651.874,
4666.670,,645.584,645.421,
4733.339,,648.045,649.895,
4800.003,,637.057,654.247,
4866.669,,646.999,649.289,
4933.338,,651.077,649.828,
5000.004,,649.765,654.241,
5066.667,,646.833,655.396,
5133.338,,642.523,645.812,
5200.003,,644.752,642.462,
5266.668,,642.200,643.388,
5333.336,,633.965,645.927,
5400.000,,628.875,639.642,
5466.669,,633.140,633.605,
5533.338,,632.880,635.558,
5599.999,,627.452,635.854,
5666.669,,623.135,635.013,
5733.337,,624.917,635.006,
5800.003,,628.455,633.566,
5866.667,,631.427,630.373,
5933.334,,625.017,632.181,
6000.002,,626.301,635.223,
6066.666,,630.168,638.299,
6133.338,,639.301,643.920,
6200.004,,638.894,643.803,
6266.667,,654.200,650.386,
6333.333,,648.544,646.913,
6400.002,,648.343,647.714,
6466.669,,652.160,650.621,
6533.336,,653.447,644.162,
6600.001,,638.868,642.727,
6666.671,,633.237,640.373,
6733.335,,637.575,640.595,
6800.001,,641.810,643.327,
6866.672,,634.430,646.900,
6933.338,,636.416,639.106,
7000.003,,637.103,647.604,
7066.667,,640.295,649.718,
7133.339,,640.463,643.558,
7200.004,,639.385,649.403,
7266.671,,646.739,657.630,
7333.336,,657.874,662.080,
7400.006,,659.585,665.196,
7466.671,,658.919,669.079,
7533.334,,662.477,665.824,
7600.000,,661.449,667.436,
7666.666,,663.611,673.666,
7733.333,,666.334,666.836,
7800.000,,662.147,664.629,
7866.666,,657.642,661.469,
7933.337,,650.398,651.751,
8000.000,,639.877,642.192,
8066.672,,631.208,636.458,
8133.337,,620.813,634.550,
8200.005,,627.366,633.457,
8266.670,,625.593,634.300,
8333.337,,621.710,633.156,
8400.004,,627.006,630.416,
8466.667,,618.836,631.282,
8533.336,,626.827,638.500,
8599.999,,631.398,641.796,
8666.671,,641.380,648.670,
8733.335,,648.371,653.480,
8800.003,,652.117,657.539,
8866.671,,659.026,659.843,
8933.337,,660.758,662.795,
9000.001,,663.674,664.879,
9066.668,,665.616,661.553,
9133.334,,665.486,661.168,
9200.003,,663.394,659.733,
9266.672,,657.485,659.522,
9333.334,,665.808,659.919,
9400.005,,662.375,666.173,
9466.666,,665.271,635.474,
9533.333,,620.401,636.206,
9600.000,,635.870,642.960,
9666.669,,638.272,638.360,
9733.335,,642.350,637.976,
9800.001,,639.243,638.511,
9866.668,,634.919,638.333,
9933.336,,632.632,636.966,
10000.004,,632.373,634.695,
10066.669,,631.655,633.933,
10133.334,,633.558,634.064,
10200.004,,633.710,637.813,
10266.667,,642.965,642.963,
10333.339,,638.627,640.094,
10400.000,,639.929,641.806,
10466.668,,641.152,642.250,
10533.334,,641.961,641.412,
10600.000,,643.688,641.884,
10666.667,,639.482,643.917,
10733.337,,642.447,642.987,
10800.002,,641.706,642.673,
10866.668,,641.979,642.731,
10933.333,,642.620,645.966,
11000.004,,640.931,646.070,
11066.666,,645.042,641.304,
11133.332,,637.485,647.618,
11200.005,,643.627,646.869,
11266.667,,650.158,655.780,
11333.334,,654.865,660.082,
11400.006,,663.967,661.832,
11466.672,,659.317,653.722,
11533.334,,644.989,643.376,
11600.005,,636.757,642.358,
11666.666,,640.309,641.917,
11733.338,,634.993,637.478,
11800.002,,637.297,635.909,
11866.669,,628.164,635.641,
11933.336,,634.311,637.439,
11999.999,,638.260,639.121,
12066.669,,641.717,644.559,
12133.339,,641.000,642.173,
12200.004,,643.715,644.575,
12266.672,,651.180,649.127,
12333.338,,650.643,652.678,
12400.002,,650.691,647.166,
12466.669,,649.670,653.743,
12533.335,,660.946,658.414,
12600.005,,662.217,656.386,
12666.666,,653.226,648.892,
12733.332,,643.710,636.241,
12800.002,,633.082,635.116,
12866.671,,636.645,638.837,
12933.337,,635.723,631.990,
13000.005,,633.999,637.902,
13066.672,,643.906,641.609,
13133.332,,645.533,644.442,
13200.001,,644.068,641.184,
13266.672,,644.070,643.815,
13333.334,,644.236,643.931,
13400.000,,650.044,646.614,
13466.670,,645.826,648.249,
13533.338,,647.998,646.998,
13599.999,,652.077,648.387,
13666.671,,647.548,649.631,
13733.333,,656.289,652.883,
13800.001,,657.172,656.465,
13866.672,,656.197,657.044,
13933.338,,660.481,656.761,
14000.001,,660.732,658.497,
14066.672,,657.382,651.829,
14133.334,,652.895,649.411,
14200.001,,649.004,646.313,
14266.668,,648.558,648.580,
14333.332,,652.133,650.359,
14400.003,,653.929,642.781,
14466.666,,645.362,648.786,
14533.333,,647.185,642.474,
14600.002,,645.691,642.037,
14666.668,,645.006,646.746,
14733.335,,650.130,647.899,
14800.004,,650.916,645.454,
14866.666,,650.097,651.675,
14933.338,,642.752,648.564,
15000.004,,646.774,645.286,
15066.669,,646.464,648.417,
15133.336,,641.591,648.359,
15200.002,,647.952,648.015,
15266.666,,647.168,648.747,
15333.338,,645.805,648.298,
15400.005,,647.512,648.255,
15466.670,,644.433,647.183,
15533.337,,650.012,651.772,
15600.000,,648.657,652.200,
15666.667,,648.332,653.520,
15733.337,,644.035,647.285,
15799.999,,648.408,648.732,
15866.672,,646.399,646.860,
15933.334,,645.890,648.372,
15999.983,,646.597,648.596,
16066.628,,646.724,647.866,
16133.274,,645.446,644.687,
16199.920,,645.814,642.238,
16266.570,,639.877,642.353,
16333.216,,639.153,639.265,
16399.856,,639.854,641.473,
16466.502,,639.317,641.622,
16533.148,,641.792,640.675,
16599.795,,639.923,639.120,
16666.439,,637.995,635.560,
16733.081,,638.814,637.726,
16799.730,,636.944,635.760,
16866.375,,639.830,637.348,
16933.021,,640.590,637.069,
16999.663,,641.633,636.796,
17066.307,,640.194,636.150,
17132.947,,640.661,637.276,
17199.596,,639.847,636.221,
17266.240,,639.480,637.017,
17332.879,,641.727,637.511,
17399.522,,642.206,638.863,
17466.169,,644.653,641.860,
17532.811,,647.265,639.754,
17599.452,,644.215,642.373,
17666.093,,646.094,639.973,
17732.739,,639.222,642.001,
17799.380,,641.178,640.544,
17866.020,,640.075,640.914,
17932.662,,638.869,643.358,
17999.307,,641.714,643.303,
18065.947,,641.483,646.881,
18132.589,,644.280,649.155,
18199.232,,649.889,652.678,
18265.870,,653.728,657.510,
18332.512,,655.876,651.602,
18399.151,,641.928,644.235,
18465.791,,637.585,640.902,
18532.428,,637.486,638.383,
18599.072,,636.380,638.653,
18665.713,,635.487,638.766,
18732.352,,633.513,637.900,
18798.992,,633.042,636.149,
18865.632,,636.466,636.546,
18932.267,,630.533,637.376,
18998.907,,635.743,635.437,
19065.550,,632.991,636.546,
19132.187,,632.940,634.483,
19198.826,,632.340,629.540,
19265.462,,623.635,626.586,
19332.105,,622.562,624.365,
19398.744,,620.503,625.536,
19465.377,,621.261,625.367,
19532.017,,622.445,628.175,
19598.653,,618.120,625.825,
19665.294,,618.412,623.900,
19731.928,,620.732,624.722,
19798.563,,618.029,625.847,
19865.204,,615.942,625.277,
19931.837,,623.605,631.007,
19998.476,,617.188,626.927,
20065.113,,622.936,628.227,
20131.747,,622.873,636.459,
20198.389,,632.520,639.412,
20265.020,,641.904,644.110,
20331.661,,640.617,643.082,
20398.291,,641.698,646.133,
20464.931,,640.143,643.456,
20531.562,,643.061,643.997,
20598.201,,642.846,646.937,
20664.832,,640.917,644.505,
20731.472,,646.929,649.349,
20798.107,,647.115,652.001,
20864.735,,647.081,652.281,
20931.371,,651.901,650.978,
20998.008,,654.534,652.749,
21064.639,,644.167,646.910,
21131.275,,648.411,650.632,
21197.906,,650.842,651.001,
21264.539,,647.324,651.520,
21331.173,,650.851,646.841,
21397.811,,649.163,653.283,
21464.444,,644.036,648.206,
21531.074,,646.530,642.917,
21597.704,,640.268,645.031,
21664.342,,641.273,644.408,
21730.971,,640.422,642.212,
21797.604,,639.135,639.702,
21864.236,,633.884,641.528,
21930.865,,637.829,643.001,
21997.497,,636.880,638.445,
22064.131,,635.765,635.846,
22130.764,,632.479,639.433,
22197.391,,634.365,639.280,
22264.020,,636.248,640.340,
22330.652,,632.258,636.394,
22397.282,,628.730,634.247,
22463.912,,627.237,635.598,
22530.545,,633.202,634.411,
22597.174,,635.000,638.105,
22663.809,,635.648,638.100,
22730.435,,631.734,634.613,
22797.063,,630.345,634.767,
22863.694,,627.328,629.272,
22930.328,,625.954,625.967,
22996.956,,623.527,628.351,
23063.583,,621.225,628.155,
23130.213,,627.918,631.702,
23196.840,,628.992,632.721,
23263.471,,625.107,631.364,
23330.097,,624.105,629.169,
23396.727,,626.144,629.646,
23463.354,,620.458,631.107,
23529.984,,620.723,625.427,
23596.611,,621.747,628.727,
23663.236,,619.957,629.776,
23729.866,,618.620,626.142,
23796.491,,618.888,627.134,
23863.117,,619.341,625.304,
23929.742,,623.849,629.862,
23996.403,,621.828,631.662,
24063.065,,628.407,632.347,
24129.723,,624.842,628.357,
24196.380,,620.249,632.945,
24263.041,,628.110,637.484,
24329.699,,633.763,643.671,
24396.360,,639.279,644.959,
24463.015,,643.096,648.704,
24529.673,,647.629,648.660,
24596.334,,644.640,650.556,
24662.992,,650.760,654.787,
24729.652,,659.661,654.534,
24796.307,,648.759,644.778,
24862.972,,642.562,643.710,
24929.630,,641.355,642.600,
24996.286,,646.995,646.377,
25062.947,,648.821,643.703,
25129.604,,639.776,641.792,
25196.261,,640.220,639.715,
25262.923,,639.991,640.466,
25329.584,,637.168,637.446,
25396.239,,640.048,640.995,
25462.900,,637.376,640.241,
25529.562,,638.841,639.013,
25596.221,,634.846,633.885,
25662.880,,627.491,634.579,
25729.536,,629.112,634.376,
25796.197,,633.450,644.254,
25862.859,,643.391,641.325,
25929.518,,636.069,639.559,
25996.175,,631.124,631.031,
26062.836,,623.854,630.623,
