{"Light":{"Led410Enable":true;"Led470Enable":true;"Led560Enable":false;"Led410Value":50.0;"Led470Value":50.0;"Led560Value":100.0};"Excitation":{"mode":1;"discontinuous":false;"interval_time":1;"continuous_time":1};"Channels":[{"Name":"CH1";"ChanelColor":"#00000000";"Roi1":"337.456338028169;222.898591549295;102.304225352113;102.304225352113";"Roi2":"319;227;102.304225352113;102.304225352113"}];"AllMarking":[{"id":0;"type":1;"opened":true;"name":"STIM";"Levels":0;"color":"#FFFF0000";"key":0;"threshold":0.0;"ID":"0";"all":true;"channels":["AllChannel";"CH1"];"enable":true};{"id":0;"type":2;"opened":true;"name":"Input1";"Levels":0;"color":"#FFFF0000";"key":0;"threshold":0.0;"ID":"0";"all":true;"channels":["AllChannel";"CH1"];"enable":true};{"id":0;"type":2;"opened":true;"name":"Input2";"Levels":0;"color":"#FF604A7B";"key":0;"threshold":0.0;"ID":"0";"all":true;"channels":["AllChannel";"CH1"];"enable":true};{"id":0;"type":2;"opened":true;"name":"Input3";"Levels":0;"color":"#FF92D050";"key":0;"threshold":0.0;"ID":"0";"all":true;"channels":["AllChannel";"CH1"];"enable":true};{"id":0;"type":2;"opened":true;"name":"Input4";"Levels":0;"color":"#FF0099FF";"key":0;"threshold":0.0;"ID":"0";"all":true;"channels":["AllChannel";"CH1"];"enable":true}];"Fps":30.0}
TimeStamp,Events,CH1-410,CH1-470,Unnamed: 4,ToneStart,PelletGrab
0.0,,274.693,199.122,,0,0
66.664,,274.747,199.013,,0,0
133.332,,274.866,198.938,,0,0
199.995,,274.5,198.744,,0,0
266.664,,274.868,198.546,,0,0
333.328,,274.479,198.592,,0,0
399.998,,274.504,198.464,,0,0
466.664,,274.457,198.491,,0,0
533.329,,274.562,198.423,,0,0
600.0,,274.475,198.394,,0,0
666.662,,274.298,198.194,,0,0
733.333,,274.407,198.116,,0,0
799.997,,274.193,198.014,,0,0
866.666,,274.413,197.961,,0,0
933.33,,274.387,197.973,,0,0
999.999,,274.222,197.895,,0,0
1066.666,,274.283,197.89,,0,0
1133.332,,274.147,197.819,,0,0
1199.998,,274.212,197.715,,0,0
1266.662,,273.885,197.741,,0,0
1333.331,,273.956,197.623,,0,0
1399.998,,273.872,197.515,,0,0
1466.66,,273.967,197.55,,0,0
1533.334,,273.98,197.503,,0,0
1599.994,,273.974,197.489,,0,0
1666.665,,273.889,197.47,,0,0
1733.333,,273.769,197.239,,0,0
1799.994,,273.817,197.283,,0,0
1866.665,,273.823,197.493,,0,0
1933.331,,273.696,197.291,,0,0
1999.996,,273.611,197.262,,0,0
2066.662,,273.763,197.218,,0,0
2133.328,,273.62,197.195,,0,0
2199.997,,273.811,197.335,,0,0
2266.661,,273.659,197.122,,0,0
2333.333,,273.776,197.189,,0,0
2399.998,,273.448,197.149,,0,0
2466.665,,273.464,197.063,,0,0
2533.328,,273.552,197.132,,0,0
2599.994,,273.509,197.018,,0,0
2666.666,,273.612,197.014,,0,0
2733.327,,273.531,196.913,,0,0
2799.998,,273.541,196.937,,0,0
2866.661,,273.42,196.863,,0,0
2933.332,,273.079,196.926,,0,0
2999.998,,273.308,196.964,,0,0
3066.663,,273.371,196.84,,0,0
3133.33,,273.274,196.889,,0,0
3199.999,,273.287,196.803,,0,0
3266.663,,273.221,196.856,,0,0
3333.333,,273.261,196.806,,0,0
3399.996,,273.302,196.729,,0,0
3466.662,,273.657,196.697,,0,0
3533.332,,273.07,196.827,,0,0
3600.0,,273.416,196.777,,0,0
3666.666,,272.96,196.652,,0,0
3733.334,,273.267,196.712,,0,0
3799.994,,273.105,196.618,,0,0
3866.661,,273.428,196.693,,0,0
3933.327,,273.295,196.707,,0,0
3999.996,,272.941,196.523,,0,0
4066.661,,273.263,196.612,,0,0
4133.33,,272.464,196.504,,0,0
4199.994,,273.439,196.52,,0,0
4266.665,,273.112,196.502,,0,0
4333.33,,273.309,196.529,,0,0
4399.995,,272.914,196.376,,0,0
4466.664,,273.059,196.41,,0,0
4533.332,,272.865,196.486,,0,0
4600.0,,272.805,196.281,,0,0
4666.664,,273.084,196.516,,0,0
4733.333,,272.964,196.467,,0,0
4799.999,,272.948,196.396,,0,0
4866.666,,272.977,196.374,,0,0
4933.327,,273.033,196.364,,0,0
5000.0,,272.974,196.376,,0,0
5066.667,,273.075,196.373,,0,0
5133.331,,272.901,196.277,,0,0
5199.995,,272.97,196.331,,0,0
5266.667,,272.778,196.416,,0,0
5333.331,,272.719,196.348,,0,0
5399.996,,272.67,196.346,,0,0
5466.664,,272.885,196.181,,0,0
5533.332,,272.9,196.358,,0,0
5599.997,,272.885,196.189,,0,0
5666.665,,272.808,196.167,,0,0
5733.328,,272.771,196.208,,0,0
5800.0,,272.95,196.036,,0,0
5866.664,,272.89,196.32,,0,0
5933.332,,272.894,196.185,,0,0
5999.997,,272.826,196.205,,0,0
6066.664,,272.811,196.092,,0,0
6133.331,,272.765,196.083,,0,0
6199.999,,272.792,196.152,,0,0
6266.662,,272.693,196.124,,0,0
6333.334,,272.662,196.061,,0,0
6399.999,,272.649,196.166,,0,0
6466.66,,272.759,196.088,,0,0
6533.329,,272.631,196.073,,0,0
6600.001,,272.739,196.092,,0,0
6666.662,,272.752,196.026,,0,0
6733.334,,272.793,196.075,,0,0
6799.997,,272.693,196.177,,0,0
6866.662,,272.57,196.125,,0,0
6933.333,,272.596,196.062,,0,0
6999.997,,272.676,196.071,,0,0
7066.661,,272.682,195.999,,0,0
7133.333,,272.783,196.054,,0,0
7199.999,,272.69,196.097,,0,0
7266.661,,272.645,196.124,,0,0
7333.329,,272.652,196.059,,0,0
7400.001,,272.603,196.185,,0,0
7466.667,,272.769,196.064,,0,0
7533.329,,272.706,196.15,,0,0
7599.998,,272.649,196.091,,0,0
7666.667,,272.698,196.058,,0,0
7733.33,,272.558,196.088,,0,0
7799.994,,272.504,196.029,,0,0
7866.663,,272.565,195.984,,0,0
7933.333,,272.777,195.988,,0,0
8000.0,,272.599,196.0,,0,0
8066.663,,272.602,196.104,,0,0
8133.33,,272.451,195.864,,0,0
8199.997,,272.578,195.913,,0,0
8266.662,,272.488,195.963,,0,0
8333.331,,272.548,195.948,,0,0
8399.998,,272.55,195.932,,0,0
8466.663,,272.546,196.046,,0,0
8533.33,,272.423,195.894,,0,0
8599.998,,272.419,195.985,,0,0
8666.661,,272.435,195.855,,0,0
8733.33,,272.56,195.995,,0,0
8799.994,,272.648,195.927,,0,0
8866.661,,272.443,195.837,,0,0
