{"Light":{"Led410Enable":true;"Led470Enable":true;"Led560Enable":false;"Led410Value":50.0;"Led470Value":50.0;"Led560Value":100.0};"Excitation":{"mode":1;"discontinuous":false;"interval_time":1;"continuous_time":1};"Channels":[{"Name":"CH1";"ChanelColor":"#00000000";"Roi1":"346.171830985915;250.583098591549;96.1521126760566;96.1521126760566";"Roi2":"319;227;96.1521126760566;96.1521126760566"}];"AllMarking":[{"id":0;"type":1;"opened":true;"name":"STIM";"Levels":0;"color":"#FFFF0000";"key":0;"threshold":0.0;"ID":"0";"all":true;"channels":["AllChannel";"CH1"];"enable":true};{"id":0;"type":2;"opened":true;"name":"Input1";"Levels":0;"color":"#FFFF0000";"key":0;"threshold":0.0;"ID":"0";"all":true;"channels":["AllChannel";"CH1"];"enable":true};{"id":0;"type":2;"opened":true;"name":"Input2";"Levels":0;"color":"#FF604A7B";"key":0;"threshold":0.0;"ID":"0";"all":true;"channels":["AllChannel";"CH1"];"enable":true};{"id":0;"type":2;"opened":true;"name":"Input3";"Levels":0;"color":"#FF92D050";"key":0;"threshold":0.0;"ID":"0";"all":true;"channels":["AllChannel";"CH1"];"enable":true};{"id":0;"type":2;"opened":true;"name":"Input4";"Levels":0;"color":"#FF0099FF";"key":0;"threshold":0.0;"ID":"0";"all":true;"channels":["AllChannel";"CH1"];"enable":true}];"Fps":30.0}
TimeStamp,Events,CH1-410,CH1-470,
0.000,,279.877,338.871,
66.662,,279.855,338.679,
133.333,,279.957,338.461,
199.996,,279.890,338.410,
266.667,,279.808,338.156,
333.332,,279.733,338.322,
399.999,,279.606,338.021,
466.668,,279.601,337.971,
533.329,,279.516,337.678,
599.999,,279.493,337.598,
666.664,,279.303,337.487,
733.334,,279.222,337.329,
799.996,,279.120,337.427,
866.663,,279.195,337.331,
933.330,,279.194,337.277,
999.995,,279.006,337.175,
1066.667,,278.871,337.098,
1133.328,,279.019,336.899,
1199.997,,278.819,336.855,
1266.667,,278.911,336.938,
1333.329,,278.769,336.783,
1399.999,,278.612,336.601,
1466.662,,278.678,336.656,
1533.329,,278.642,336.699,
1599.994,,278.656,336.647,
1666.664,,278.574,336.454,
1733.334,,278.657,336.449,
1799.998,,278.479,336.590,
1866.664,,278.401,336.349,
1933.333,,278.496,336.279,
1999.997,,278.492,336.274,
2066.662,,278.272,336.241,
2133.328,,278.330,336.348,
2199.998,,278.413,336.304,
2266.662,,278.130,335.949,
2333.328,,278.318,336.022,
2400.001,,278.255,336.125,
2466.664,,278.106,336.012,
2533.330,,278.187,335.911,
2600.000,,278.015,336.001,
2666.666,,277.991,335.687,
2733.334,,277.904,335.722,
2799.995,,277.964,335.742,
2866.665,,277.826,335.815,
2933.329,,278.005,335.548,
2999.996,,277.945,335.551,
3066.662,,277.920,335.563,
3133.333,,277.857,335.665,
3199.995,,277.794,335.504,
3266.661,,277.599,335.522,
3333.331,,277.503,335.323,
3399.998,,277.452,335.223,
3466.663,,277.256,334.984,
3533.329,,277.339,334.920,
3599.995,,277.303,335.053,
3666.662,,277.131,334.853,
3733.332,,277.425,335.016,
3799.998,,277.239,334.945,
3866.664,,277.128,334.931,
3933.328,,277.136,334.764,
3999.999,,277.071,334.722,
4066.667,,277.101,334.819,
4133.328,,277.124,334.642,
4199.996,,276.960,334.727,
4266.667,,277.068,334.521,
4333.330,,276.997,334.684,
4399.997,,277.104,334.664,
4466.668,,276.881,334.741,
4533.332,,277.005,334.563,
4599.998,,276.849,334.649,
4666.667,,276.943,334.482,
4733.330,,276.818,334.345,
4799.996,,276.952,334.555,
4866.666,,276.783,334.481,
4933.330,,276.652,334.355,
5000.001,,276.728,334.338,
5066.665,,276.761,334.383,
5133.330,,276.595,334.450,
5199.996,,276.828,334.487,
5266.664,,276.721,334.513,
5333.328,,276.790,334.317,
5399.995,,276.705,334.106,
5466.666,,276.692,334.425,
5533.329,,276.490,334.365,
5600.000,,276.699,334.114,
5666.667,,276.467,334.284,
5733.328,,276.698,334.133,
5799.998,,276.317,334.406,
5866.663,,276.424,334.184,
5933.330,,276.531,334.215,
5999.999,,276.488,334.063,
6066.664,,276.542,334.050,
6133.328,,276.477,334.183,
6199.999,,276.472,334.132,
6266.667,,276.442,334.067,
6333.334,,276.466,333.988,
6400.000,,276.294,334.014,
6466.663,,276.438,334.134,
6533.333,,276.438,334.139,
6599.995,,276.357,334.125,
6666.663,,276.217,333.959,
6733.331,,276.317,333.823,
6799.999,,276.343,333.847,
6866.665,Input1*2*0,276.300,333.723,
6933.329,,276.372,333.894,
6999.996,Input1*2*1,276.289,333.894,
7066.662,,276.188,333.697,
7133.331,,276.310,333.918,
7199.996,,276.088,333.715,
7266.665,,276.284,333.772,
7333.334,,276.170,333.690,
7399.996,,276.075,333.810,
7466.666,,276.301,333.731,
7533.331,,276.088,333.768,
7599.998,,276.169,333.498,
7666.665,,275.930,333.785,
7733.328,,276.213,333.823,
7799.999,,276.010,333.814,
7866.665,,276.156,333.854,
7933.332,,275.888,333.533,
8000.001,,275.810,333.643,
8066.664,,276.040,333.624,
8133.333,,275.876,333.614,
8199.999,,275.931,333.572,
8266.667,,275.893,333.612,
8333.330,,275.945,333.560,
8399.997,,275.872,333.404,
8466.664,,276.076,333.517,
8533.328,,275.863,333.546,
8599.995,,275.850,333.523,
8666.661,,275.865,333.514,
8733.329,,275.743,333.464,
8799.999,,275.684,333.413,
8866.661,,275.662,333.360,
8933.330,,275.713,333.365,
8999.997,,275.865,333.218,
9066.662,,275.762,333.377,
9133.328,,275.633,333.405,
9199.998,,275.533,333.405,
9266.666,,275.589,333.250,
9333.333,,275.521,333.220,
9399.998,,275.665,333.180,
9466.663,,275.612,333.455,
9533.333,,275.613,333.457,
9599.996,,275.605,333.197,
9666.665,,275.525,333.068,
9733.329,,275.680,333.279,
9799.997,,275.544,333.186,
9866.667,,275.702,333.275,
9933.332,,275.629,333.094,
9999.998,,275.456,333.113,
10066.667,,275.433,333.162,
10133.332,,275.591,332.949,
10199.995,,275.327,333.128,
10266.661,,275.461,332.932,
10333.328,,275.235,333.018,
10399.995,,275.465,333.140,
10466.666,,275.330,333.018,
10533.331,,275.496,332.805,
10599.998,,275.203,332.536,
10666.666,,274.948,332.429,
10733.328,,274.836,332.924,
10799.995,,275.283,332.917,
10866.661,,275.329,332.855,
10933.328,,275.401,333.093,
10999.996,,275.667,333.140,
11066.666,,275.790,333.218,
11133.333,,275.573,333.261,
11200.001,,275.506,333.360,
11266.661,,275.819,333.332,
11333.332,,275.615,333.107,
11399.998,,275.620,333.227,
11466.665,,275.602,333.087,
11533.333,,275.481,333.030,
11600.000,,275.439,333.119,
11666.664,,275.474,333.120,
11733.330,,275.488,333.177,
11799.995,,275.379,333.070,
11866.664,,275.462,333.162,
11933.328,,275.441,333.009,
11999.994,,275.480,333.232,
12066.664,,275.474,333.283,
12133.334,,275.464,333.121,
12199.995,,275.570,332.985,
12266.664,,275.488,333.101,
12333.330,,275.520,333.056,
12399.999,,275.359,332.923,
12466.662,,275.516,333.162,
12533.332,,275.607,333.244,
12599.999,,275.367,333.074,
12666.665,,275.598,333.222,
12733.333,,275.585,333.040,
12800.000,,275.439,332.943,
12866.667,,275.444,333.068,
12933.331,,275.640,333.194,
12999.995,,275.432,333.178,
13066.665,,275.610,333.236,
13133.334,,275.497,333.015,
13199.998,,275.494,333.386,
13266.665,,275.687,333.250,
13333.333,,275.677,333.104,
13399.995,,275.644,333.182,
13466.661,,275.591,333.144,
13533.328,,275.436,333.350,
13599.996,,275.546,332.909,
13666.667,,275.398,333.069,
13733.328,,275.329,332.838,
13800.000,,275.405,332.981,
13866.665,,275.508,332.772,
13933.328,,275.389,333.162,
13999.995,,275.561,332.826,
14066.667,,275.380,333.062,
14133.329,,275.531,332.959,
14200.001,,275.577,333.167,
14266.666,,275.323,332.997,
14333.328,,275.236,332.867,
14399.995,,275.450,332.746,
14466.663,,275.394,333.108,
14533.329,,275.305,332.763,
14599.997,,275.552,332.930,
14666.667,,275.244,332.901,
14733.328,,275.342,332.904,
14800.000,,275.148,333.012,
14866.662,,275.336,332.738,
14933.334,,275.288,332.976,
14999.996,,275.235,332.969,
15066.664,,275.135,332.833,
15133.333,,275.330,332.761,
15200.000,,275.141,332.936,
15266.664,,275.232,332.790,
15333.334,,275.156,332.806,
15399.997,,275.210,332.838,
15466.663,,275.075,332.839,
15533.329,,275.232,332.871,
15599.995,,275.382,332.741,
15666.667,,275.198,332.903,
15733.330,,275.164,332.812,
15800.000,,275.192,332.741,
15866.666,,275.163,332.637,
15933.329,,275.145,332.671,
15999.978,,275.122,332.678,
16066.626,,274.980,332.634,
16133.276,,275.081,332.760,
16199.919,,275.087,332.817,
16266.573,,275.088,332.739,
16333.215,,275.105,332.584,
16399.867,,275.191,332.586,
16466.508,,275.010,332.722,
16533.157,,274.958,332.607,
16599.804,,275.010,332.777,
16666.450,,275.076,332.521,
16733.096,,275.093,332.659,
16799.748,,274.963,332.647,
16866.390,,274.950,332.780,
16933.040,,275.027,332.574,
16999.682,,274.936,332.549,
17066.327,,274.832,332.586,
17132.974,,275.099,332.444,
17199.618,,274.904,332.551,
17266.266,,274.905,332.606,
17332.912,,274.841,332.542,
17399.557,,274.987,332.516,
17466.198,,274.818,332.502,
17532.845,,274.822,332.465,
17599.491,,274.984,332.611,
17666.133,,274.817,332.682,
17732.777,,274.926,332.603,
17799.424,,274.858,332.440,
17866.062,,274.760,332.532,
17932.710,,274.804,332.370,
17999.349,,274.776,332.551,
18065.995,,274.776,332.547,
18132.635,,274.928,332.488,
18199.278,,274.827,332.521,
18265.922,,274.669,332.407,
18332.565,,274.980,332.511,
18399.210,,274.794,332.518,
18465.850,,274.800,332.520,
18532.495,,274.850,332.492,
18599.135,,274.671,332.357,
18665.778,,274.786,332.431,
18732.421,,274.611,332.356,
18799.062,,274.862,332.599,
18865.704,,274.606,332.564,
18932.342,,274.818,332.565,
18998.987,,274.741,332.421,
19065.629,,274.646,332.338,
19132.267,,274.731,332.448,
19198.908,,274.720,332.470,
19265.548,,274.879,332.336,
19332.187,,274.737,332.409,
19398.830,,274.801,332.303,
19465.470,,274.541,332.332,
19532.107,,274.521,332.256,
19598.751,,274.609,332.405,
19665.390,,274.589,332.442,
19732.026,,274.712,332.446,
19798.665,,274.702,332.255,
19865.303,,274.603,332.345,
19931.948,,274.656,332.391,
19998.583,,274.556,332.400,
20065.225,,274.629,332.264,
20131.865,,274.588,332.443,
20198.500,,274.523,332.197,
20265.139,,274.566,332.263,
20331.776,,274.455,332.317,
20398.414,,274.542,332.031,
20465.051,,274.494,332.201,
20531.692,,274.400,332.167,
20598.327,,274.411,332.163,
20664.968,,274.386,332.240,
20731.602,,274.423,332.168,
20798.236,,274.522,332.720,
20864.878,,275.327,333.378,
20931.516,,275.701,333.358,
20998.150,,275.925,333.590,
21064.783,,275.647,333.427,
21131.422,,275.670,333.343,
21198.056,,275.738,333.377,
21264.695,,275.632,333.707,
21331.332,,275.762,333.391,
21397.967,,275.496,332.952,
21464.602,,275.060,332.904,
21531.237,,275.356,333.359,
21597.871,,275.713,333.283,
21664.505,,275.495,333.286,
21731.145,,275.389,333.572,
21797.776,Input1*2*0,275.385,333.420,
21864.414,,275.650,333.423,
21931.043,,275.632,333.363,
21997.680,,275.622,333.345,
22064.313,,275.430,333.149,
22130.950,,275.437,333.190,
22197.582,,275.328,333.093,
22264.212,Input1*2*1,275.093,332.516,
22330.845,,274.964,332.913,
22397.484,,275.198,332.639,
22464.112,,274.778,332.429,
22530.749,,274.546,332.481,
22597.381,,274.833,332.943,
22664.011,,275.017,332.844,
22730.646,,275.144,333.028,
22797.280,,275.127,333.134,
22863.913,,275.217,332.905,
22930.544,,275.363,332.915,
22997.178,,275.184,333.090,
23063.804,,275.095,332.852,
23130.441,,275.050,332.959,
23197.072,,275.071,332.724,
23263.701,,275.066,332.902,
23330.335,,274.829,332.943,
23396.963,,275.103,333.343,
23463.593,,275.411,333.489,
23530.221,,275.509,333.377,
23596.854,,275.444,333.172,
23663.487,,275.447,333.450,
23730.119,,275.468,333.348,
23796.748,,275.453,333.313,
23863.374,,275.513,333.282,
23930.003,,275.494,333.363,
23996.665,,275.463,333.192,
24063.318,,275.428,333.206,
24129.978,,275.428,333.341,
24196.637,,275.342,333.384,
24263.297,,275.302,333.319,
24329.951,,275.494,333.405,
24396.608,,275.442,333.391,
24463.267,,275.361,333.313,
24529.927,,275.396,333.269,
24596.585,,275.454,333.317,
24663.244,,275.331,333.202,
24729.903,,275.272,333.308,
24796.560,,275.273,333.114,
24863.220,,275.077,333.215,
24929.879,,275.187,333.200,
24996.533,,275.149,332.985,
25063.191,,274.986,332.965,
25129.853,,274.643,332.705,
25196.507,,274.586,332.469,
25263.163,,274.532,331.684,
25329.823,,273.311,331.187,
25396.483,,273.146,331.320,
25463.140,,273.270,331.284,
25529.799,,273.437,331.334,
25596.453,,273.250,331.285,
25663.115,,273.382,331.339,
25729.770,,273.500,331.411,
25796.431,,273.487,331.300,
25863.090,,273.232,331.267,
25929.744,,273.403,331.219,
25996.408,,273.284,331.276,
26063.067,,273.265,331.361,
26129.723,,273.320,331.407,
26196.383,,273.218,331.207,
26263.037,,273.483,331.013,
26329.699,,273.341,331.197,
26396.351,,273.142,331.316,
26463.012,,273.100,331.344,
26529.668,,273.076,331.291,
26596.327,,273.179,331.250,
26662.990,,273.279,331.043,
26729.642,,273.291,331.104,
26796.301,,273.127,331.060,
26862.964,,273.287,331.125,
26929.617,,273.244,331.164,
26996.280,,273.395,331.324,
27062.936,,273.200,331.186,
27129.593,,273.213,331.277,
27196.253,,273.277,331.162,
27262.908,,273.234,331.014,
27329.568,,273.178,331.158,
27396.230,,273.289,331.274,
27462.886,,273.116,331.403,
27529.542,,273.078,331.177,
27596.201,,273.258,331.139,
27662.859,,273.223,331.284,
27729.518,,273.046,331.060,
27796.173,,273.104,331.053,
27862.836,,273.254,331.224,
27929.490,,273.232,331.324,
27996.152,,273.333,331.342,
28062.808,,273.105,331.250,
28129.469,,273.058,331.268,
28196.124,,273.350,331.364,
28262.785,,273.215,331.209,
28329.444,,273.226,331.260,
28396.103,,273.059,330.932,
28462.758,,272.874,330.789,
28529.417,,272.814,331.088,
28596.075,,273.666,332.202,
28662.736,,274.230,332.588,
28729.389,,274.536,332.970,
28796.050,,274.891,333.032,
28862.710,,275.041,333.213,
28929.366,,275.287,333.284,
28996.028,,275.312,333.558,
29062.686,,275.559,333.533,
29129.344,,275.531,333.382,
29196.000,,275.657,333.634,
29262.657,,275.828,333.686,
29329.313,,275.678,333.874,
29395.976,,275.725,333.778,
29462.632,,275.731,333.768,
