{"Light":{"Led410Enable":true;"Led470Enable":true;"Led560Enable":false;"Led410Value":50.0;"Led470Value":50.0;"Led560Value":100.0};"Excitation":{"mode":1;"discontinuous":false;"interval_time":1;"continuous_time":1};"Channels":[{"Name":"CH1";"ChanelColor":"#00000000";"Roi1":"344.121126760563;241.354929577464;96.1521126760566;96.1521126760566";"Roi2":"319;227;96.1521126760566;96.1521126760566"}];"AllMarking":[{"id":0;"type":1;"opened":true;"name":"STIM";"Levels":0;"color":"#FFFF0000";"key":0;"threshold":0.0;"ID":"0";"all":true;"channels":["AllChannel";"CH1"];"enable":true};{"id":0;"type":2;"opened":true;"name":"Input1";"Levels":0;"color":"#FFFF0000";"key":0;"threshold":0.0;"ID":"0";"all":true;"channels":["AllChannel";"CH1"];"enable":true};{"id":0;"type":2;"opened":true;"name":"Input2";"Levels":0;"color":"#FF604A7B";"key":0;"threshold":0.0;"ID":"0";"all":true;"channels":["AllChannel";"CH1"];"enable":true};{"id":0;"type":2;"opened":true;"name":"Input3";"Levels":0;"color":"#FF92D050";"key":0;"threshold":0.0;"ID":"0";"all":true;"channels":["AllChannel";"CH1"];"enable":true};{"id":0;"type":2;"opened":true;"name":"Input4";"Levels":0;"color":"#FF0099FF";"key":0;"threshold":0.0;"ID":"0";"all":true;"channels":["AllChannel";"CH1"];"enable":true}];"Fps":30.0}
TimeStamp,Events,CH1-410,CH1-470,Unnamed: 4,ToneStart,PelletGrab
0.0,,571.266,644.807,,0,0
66.667,,602.356,666.056,,0,0
133.328,,626.022,687.482,,0,0
199.999,,641.079,696.532,,0,0
266.661,,640.221,687.497,,0,0
333.333,,643.683,690.845,,0,0
400.001,,634.769,689.095,,0,0
466.665,,641.2,695.199,,0,0
533.334,,649.817,705.952,,0,0
599.998,,667.662,721.39,,0,0
666.668,,675.157,725.603,,0,0
733.332,,677.021,724.896,,0,0
799.997,,676.166,723.891,,0,0
866.666,,676.232,724.678,,0,0
933.329,,673.936,720.823,,0,0
999.998,,668.907,715.58,,0,0
1066.663,,666.223,711.117,,0,0
1133.33,,657.587,703.79,,0,0
1199.995,,655.327,703.068,,0,0
1266.662,,655.443,703.932,,0,0
1333.328,,656.258,704.055,,0,0
1399.997,,655.26,699.29,,0,0
1466.663,,647.814,693.101,,0,0
1533.332,,639.523,683.003,,0,0
1599.999,,629.608,675.919,,0,0
1666.661,,629.196,682.507,,0,0
1733.331,,638.537,691.072,,0,0
1799.996,,642.488,693.448,,0,0
1866.665,,644.902,698.701,,0,0
1933.331,,651.969,704.853,,0,0
1999.995,,655.814,708.529,,0,0
2066.666,,662.699,714.281,,0,0
2133.331,,666.27,718.187,,0,0
2199.997,,670.649,718.32,,0,0
2266.668,,667.907,714.938,,0,0
2333.334,,665.52,713.313,,0,0
2399.998,,663.933,710.731,,0,0
2466.667,,660.515,705.068,,0,0
2533.332,,657.217,702.849,,0,0
2599.999,,648.957,695.033,,0,0
2666.662,,648.716,696.612,,0,0
2733.332,,646.751,696.767,,0,0
2800.001,,649.057,699.516,,0,0
2866.662,,650.924,700.177,,0,0
2933.33,,651.713,699.437,,0,0
2999.995,,650.799,700.299,,0,0
3066.661,,652.407,701.558,,0,0
3133.329,,651.964,701.385,,0,0
3200.0,,656.235,707.114,,0,0
3266.662,,659.419,708.817,,0,0
3333.334,,662.958,707.264,,0,0
3400.0,,659.386,708.515,,0,0
3466.664,,659.821,710.537,,0,0
3533.333,,661.509,709.319,,0,0
3599.995,,657.473,705.506,,0,0
3666.664,,656.486,703.415,,0,0
3733.333,,651.109,696.284,,0,0
3800.001,,645.87,690.17,,0,0
3866.664,,637.115,683.575,,0,0
3933.329,,635.223,684.388,,0,0
4000.0,,637.256,687.048,,0,0
4066.665,,639.003,685.748,,0,0
4133.33,,632.477,681.399,,0,0
4200.001,,628.908,679.725,,0,0
4266.668,,629.51,680.397,,0,0
4333.328,,629.465,680.121,,0,0
4400.0,,628.731,679.507,,0,0
4466.665,,629.83,680.439,,0,0
4533.332,,629.929,681.618,,0,0
4599.999,,631.834,681.151,,0,0
4666.664,,627.846,678.456,,0,0
4733.329,,626.414,675.166,,0,0
4799.995,,624.466,675.817,,0,0
4866.665,,625.075,674.28,,0,0
4933.334,,622.997,673.714,,0,0
5000.0,,622.818,673.961,,0,0
5066.661,,628.008,680.223,,0,0
5133.329,,632.081,681.529,,0,0
5199.997,,635.691,683.298,,0,0
5266.665,,633.232,680.364,,0,0
5333.332,,633.686,684.582,,0,0
5400.0,,634.73,680.292,,0,0
5466.665,,629.437,676.246,,0,0
5533.327,,627.031,676.204,,0,0
5599.996,,627.241,674.703,,0,0
5666.662,,627.423,679.697,,0,0
5733.328,,628.188,674.411,,0,0
5799.996,,623.167,670.703,,0,0
5866.666,,623.639,672.113,,0,0
5933.334,,622.848,668.9,,0,0
5999.998,,623.524,670.205,,0,0
6066.666,,621.545,667.567,,0,0
6133.332,,620.299,668.481,,0,0
6199.999,,620.542,667.316,,0,0
6266.665,,618.431,663.764,,0,0
6333.33,,616.654,662.652,,0,0
6399.994,,617.569,663.876,,0,0
6466.661,,616.959,663.142,,0,0
6533.328,,617.251,663.244,,0,0
6599.998,,616.599,662.711,,0,0
6666.664,,617.246,664.052,,0,0
6733.33,,617.714,661.881,,0,0
6799.998,,614.886,660.615,,0,0
6866.667,,614.417,658.84,,0,0
6933.33,,611.883,655.366,,0,0
6999.996,,609.442,655.29,,0,0
7066.666,,608.802,652.148,,0,0
7133.329,,606.048,648.344,,0,0
7199.999,,604.427,651.969,,0,0
7266.663,,610.96,656.946,,0,0
7333.33,,612.026,656.141,,0,0
7399.997,,609.523,650.617,,0,0
7466.662,,607.879,653.946,,0,0
7533.328,,612.061,658.47,,0,0
7599.995,,616.693,659.625,,0,0
7666.667,,616.315,660.829,,0,0
7733.331,,620.562,665.443,,0,0
7800.001,,621.728,663.395,,0,0
7866.667,,618.08,658.303,,0,0
7933.334,,612.068,653.743,,0,0
7999.999,,610.514,648.79,,0,0
8066.666,,603.896,645.854,,0,0
8133.328,,606.498,648.893,,0,0
8199.995,,607.522,649.302,,0,0
8266.665,,606.696,647.398,,0,0
8333.33,,603.37,642.892,,0,0
8400.0,,602.224,645.005,,0,0
8466.663,,603.857,641.868,,0,0
8533.33,,596.948,630.701,,0,0
8600.0,,585.149,619.206,,0,0
8666.665,,580.928,619.361,,0,0
8733.331,,579.421,616.868,,0,0
8799.999,,579.531,617.782,,0,0
8866.666,,582.695,621.217,,0,0
8933.331,,581.454,615.359,,0,0
8999.994,,577.887,616.437,,0,0
9066.664,,582.608,623.721,,0,0
9133.332,,590.146,635.708,,0,0
9200.0,,596.95,642.405,,0,0
9266.667,,604.115,658.216,,0,0
9333.334,,616.307,664.568,,0,0
9399.996,,617.506,664.89,,0,0
9466.663,,617.973,666.788,,0,0
9533.33,,619.858,668.893,,0,0
9599.998,,621.421,670.414,,0,0
9666.667,,622.604,671.785,,0,0
9733.334,,623.47,669.327,,0,0
9800.001,,620.424,669.709,,0,0
9866.662,,621.414,670.647,,0,0
9933.333,,621.965,669.564,,0,0
9999.994,,620.134,668.367,,0,0
10066.665,,619.561,668.543,,0,0
10133.33,,619.105,667.479,,0,0
10199.996,,618.627,666.893,,0,0
10266.664,,618.096,667.193,,0,0
10333.332,,618.447,667.787,,0,0
10399.995,,619.051,667.058,,0,0
10466.662,,617.904,666.993,,0,0
10533.329,,618.415,667.073,,0,0
10599.997,,618.313,666.998,,0,0
10666.664,,618.151,667.19,,0,0
10733.33,,618.994,668.015,,0,0
10799.995,,619.547,668.255,,0,0
10866.666,,619.156,667.678,,0,0
10933.334,,619.104,667.617,,0,0
10999.999,,618.368,667.108,,0,0
11066.666,,618.622,666.979,,0,0
11133.329,,617.683,666.187,,0,0
11199.995,,616.97,664.965,,0,0
11266.667,,616.002,663.918,,0,0
11333.334,,614.764,663.438,,0,0
11399.998,,615.38,664.456,,0,0
11466.665,,615.08,663.65,,0,0
11533.331,,614.73,663.529,,0,0
11600.001,,614.349,662.952,,0,0
11666.661,,613.992,663.3,,0,0
11733.333,,614.69,663.26,,0,0
11799.998,,614.448,663.311,,0,0
11866.667,,613.627,662.377,,0,0
11933.332,,613.634,662.487,,0,0
11999.997,,613.537,662.241,,0,0
12066.662,,613.275,662.349,,0,0
12133.331,,612.536,661.507,,0,0
12199.996,,612.26,661.291,,0,0
12266.664,,612.103,661.149,,0,0
12333.333,,611.835,660.298,,0,0
12399.999,,610.882,659.949,,0,0
12466.665,,610.969,659.859,,0,0
12533.333,,610.768,659.293,,0,0
12600.0,,609.825,658.344,,0,0
12666.667,,609.729,659.191,,0,0
12733.33,,609.976,658.655,,0,0
12800.0,,610.043,659.311,,0,0
12866.661,,610.163,658.637,,0,0
12933.332,,609.43,658.21,,0,0
12999.998,,609.134,658.364,,0,0
13066.664,,609.685,658.592,,0,0
13133.334,,609.404,658.702,,0,0
13199.996,,609.739,658.266,,0,0
13266.661,,609.327,658.981,,0,0
13333.333,,609.876,658.631,,0,0
13399.999,,609.658,658.937,,0,0
13466.662,,609.691,658.51,,0,0
13533.334,,609.361,658.304,,0,0
13600.0,,610.067,659.071,,0,0
13666.665,,609.721,657.683,,0,0
13733.328,,608.491,657.419,,0,0
13799.997,,608.893,657.545,,0,0
13866.666,,608.408,657.214,,0,0
13933.329,,607.946,656.759,,0,0
13999.995,,608.004,657.091,,0,0
14066.666,,608.682,657.841,,0,0
14133.33,,609.089,657.983,,0,0
14200.001,,609.173,657.812,,0,0
14266.664,,608.769,657.12,,0,0
14333.334,,608.249,656.708,,0,0
14399.997,,608.008,656.905,,0,0
14466.666,,607.553,655.846,,0,0
14533.331,,606.73,656.002,,0,0
14599.998,,607.089,655.999,,0,0
14666.663,,606.649,655.448,,0,0
14733.334,,606.54,655.675,,0,0
14800.0,,606.607,655.528,,0,0
14866.667,,606.835,655.612,,0,0
14933.33,,606.668,655.45,,0,0
14999.999,,606.052,654.717,,0,0
15066.666,,605.719,654.788,,0,0
15133.328,,605.876,655.117,,0,0
15199.999,,606.095,654.936,,0,0
15266.662,,606.006,654.281,,0,0
15333.333,,604.865,654.118,,0,0
15399.999,,605.41,654.167,,0,0
15466.666,,604.558,653.502,,0,0
15533.332,,604.626,652.824,,0,0
15599.996,,603.298,652.14,,0,0
15666.663,,603.405,653.117,,0,0
15733.333,,604.474,654.231,,0,0
15799.996,,605.727,654.675,,0,0
15866.663,,605.863,654.078,,0,0
15933.331,,605.073,653.903,,0,0
15999.986,,604.494,652.495,,0,0
16066.647,,603.269,652.215,,0,0
16133.307,,603.195,651.621,,0,0
16199.962,,602.355,651.427,,0,0
16266.62,,602.355,650.272,,0,0
16333.276,,601.267,650.538,,0,0
16399.936,,602.066,650.963,,0,0
16466.59,,602.06,651.51,,0,0
16533.247,,602.889,651.7,,0,0
16599.903,,602.106,650.775,,0,0
16666.562,,601.606,651.163,,0,0
16733.218,,602.268,650.856,,0,0
16799.875,,601.94,651.104,,0,0
16866.533,,602.098,651.343,,0,0
16933.192,,602.044,650.929,,0,0
16999.843,,602.05,651.127,,0,0
17066.504,,601.584,650.283,,0,0
17133.156,,600.985,650.329,,0,0
17199.812,,600.749,648.837,,0,0
